# == pyFAI calibration ==
# Distance Sample to Detector: 0.208651380603 m
# PONI: 8.729e-02, 7.996e-02 m
# Rotations: -0.018442 0.004138 -0.000000 rad
# 
# == Fit2d calibration ==
# Distance Sample-beamCenter: 208.689 mm
# Center: x=487.259, y=512.548 pix
# Tilt: 1.083 deg  TiltPlanRot: 12.646 deg
# 
# Detector Detector	 Spline= None	 PixelSize= 1.720e-04, 1.720e-04 m
#    Detector has a mask: False 
#    Detector has a dark current: False 
#    detector has a flat field: False 
# 
# Wavelength: 4.066e-11 m
# Mask applied: None
# Dark current applied: None
# Flat field applied: None
# Polarization factor: None
# Normalization factor: None
#
# 2th_deg	 I
1.019698551E-02  2.434518099E+00
3.059095652E-02  4.608371735E+00
5.098492753E-02  4.272394657E+00
7.137889854E-02  5.471512794E+00
9.177286955E-02  4.943078041E+00
1.121668406E-01  5.806974411E+00
1.325608116E-01  5.452114105E+00
1.529547826E-01  5.476494312E+00
1.733487536E-01  5.205543995E+00
1.937427246E-01  4.847519875E+00
2.141366956E-01  4.460409641E+00
2.345306666E-01  3.779599667E+00
2.549246377E-01  4.045105934E+00
2.753186087E-01  4.424594402E+00
2.957125797E-01  4.681117535E+00
3.161065507E-01  5.108562946E+00
3.365005217E-01  5.700329304E+00
3.568944927E-01  6.357110977E+00
3.772884637E-01  6.679119587E+00
3.976824347E-01  6.942544937E+00
4.180764057E-01  7.418640614E+00
4.384703768E-01  7.507440567E+00
4.588643478E-01  7.627262115E+00
4.792583188E-01  7.810874939E+00
4.996522898E-01  7.845051765E+00
5.200462608E-01  8.083956718E+00
5.404402318E-01  8.238490105E+00
5.608342028E-01  8.475253105E+00
5.812281738E-01  8.677183151E+00
6.016221449E-01  8.705430031E+00
6.220161159E-01  8.762386322E+00
6.424100869E-01  8.836569786E+00
6.628040579E-01  8.889855385E+00
6.831980289E-01  9.352637291E+00
7.035919999E-01  9.866290092E+00
7.239859709E-01  1.050122738E+01
7.443799419E-01  1.124261665E+01
7.647739130E-01  1.389381409E+01
7.851678840E-01  1.923966599E+01
8.055618550E-01  2.578904915E+01
8.259558260E-01  3.190405846E+01
8.463497970E-01  3.754357147E+01
8.667437680E-01  4.157755661E+01
8.871377390E-01  4.436378860E+01
9.075317100E-01  4.655060196E+01
9.279256810E-01  4.725858688E+01
9.483196521E-01  4.885635757E+01
9.687136231E-01  5.117622375E+01
9.891075941E-01  5.447505188E+01
1.009501565E+00  5.688784409E+01
1.029895536E+00  5.980720139E+01
1.050289507E+00  6.307780075E+01
1.070683478E+00  6.591935730E+01
1.091077449E+00  6.792459869E+01
1.111471420E+00  6.942538452E+01
1.131865391E+00  7.187500000E+01
1.152259362E+00  7.534005737E+01
1.172653333E+00  7.894951630E+01
1.193047304E+00  8.305326843E+01
1.213441275E+00  8.752616119E+01
1.233835246E+00  9.160413361E+01
1.254229217E+00  9.696572113E+01
1.274623188E+00  1.001708069E+02
1.295017159E+00  1.047030869E+02
1.315411130E+00  1.074543915E+02
1.335805101E+00  1.110698776E+02
1.356199072E+00  1.138722229E+02
1.376593043E+00  1.165774384E+02
1.396987014E+00  1.193620300E+02
1.417380985E+00  1.210989304E+02
1.437774956E+00  1.241850891E+02
1.458168927E+00  1.262327499E+02
1.478562898E+00  1.292534485E+02
1.498956869E+00  1.301507263E+02
1.519350840E+00  1.322349854E+02
1.539744811E+00  1.341618195E+02
1.560138782E+00  1.363010254E+02
1.580532753E+00  1.383407898E+02
1.600926724E+00  1.393532715E+02
1.621320695E+00  1.414995117E+02
1.641714666E+00  1.418299713E+02
1.662108637E+00  1.444555054E+02
1.682502608E+00  1.459364929E+02
1.702896580E+00  1.483400421E+02
1.723290551E+00  1.507510681E+02
1.743684522E+00  1.515517273E+02
1.764078493E+00  1.544235840E+02
1.784472464E+00  1.545525208E+02
1.804866435E+00  1.577654419E+02
1.825260406E+00  1.575761871E+02
1.845654377E+00  1.594146729E+02
1.866048348E+00  1.608738251E+02
1.886442319E+00  1.619682465E+02
1.906836290E+00  1.643874054E+02
1.927230261E+00  1.645046082E+02
1.947624232E+00  1.667219543E+02
1.968018203E+00  1.664895630E+02
1.988412174E+00  1.679193573E+02
2.008806145E+00  1.683876953E+02
2.029200116E+00  1.689024963E+02
2.049594087E+00  1.702911377E+02
2.069988058E+00  1.707119598E+02
2.090382029E+00  1.719622650E+02
2.110776000E+00  1.712198944E+02
2.131169971E+00  1.718941345E+02
2.151563942E+00  1.725587616E+02
2.171957913E+00  1.737982330E+02
2.192351884E+00  1.750381775E+02
2.212745855E+00  1.757337036E+02
2.233139826E+00  1.766829529E+02
2.253533797E+00  1.762484436E+02
2.273927768E+00  1.771347198E+02
2.294321739E+00  1.766163635E+02
2.314715710E+00  1.776742249E+02
2.335109681E+00  1.781181641E+02
2.355503652E+00  1.788134918E+02
2.375897623E+00  1.801043854E+02
2.396291594E+00  1.793385162E+02
2.416685565E+00  1.799919281E+02
2.437079536E+00  1.794741211E+02
2.457473507E+00  1.807064209E+02
2.477867478E+00  1.807652435E+02
2.498261449E+00  1.805839233E+02
2.518655420E+00  1.811254730E+02
2.539049391E+00  1.809738464E+02
2.559443362E+00  1.817650757E+02
2.579837333E+00  1.813748932E+02
2.600231304E+00  1.819869080E+02
2.620625275E+00  1.817675476E+02
2.641019246E+00  1.818088074E+02
2.661413217E+00  1.827296295E+02
2.681807188E+00  1.821393585E+02
2.702201159E+00  1.827229614E+02
2.722595130E+00  1.811899261E+02
2.742989101E+00  1.818435211E+02
2.763383072E+00  1.812058411E+02
2.783777043E+00  1.818993378E+02
2.804171014E+00  1.815978088E+02
2.824564985E+00  1.812140045E+02
2.844958956E+00  1.817425079E+02
2.865352927E+00  1.814321594E+02
2.885746898E+00  1.817622681E+02
2.906140869E+00  1.806658783E+02
2.926534840E+00  1.811882019E+02
2.946928811E+00  1.811440277E+02
2.967322782E+00  1.811688538E+02
2.987716753E+00  1.820183563E+02
3.008110724E+00  1.807770386E+02
3.028504695E+00  1.805240173E+02
3.048898666E+00  1.786868896E+02
3.069292637E+00  1.790399628E+02
3.089686608E+00  1.788142548E+02
3.110080579E+00  1.797054596E+02
3.130474550E+00  1.803021088E+02
3.150868521E+00  1.793993225E+02
3.171262492E+00  1.790055084E+02
3.191656463E+00  1.782978516E+02
3.212050434E+00  1.791508636E+02
3.232444405E+00  1.791389313E+02
3.252838376E+00  1.795027161E+02
3.273232347E+00  1.794351044E+02
3.293626318E+00  1.785694580E+02
3.314020289E+00  1.788212280E+02
3.334414260E+00  1.777492065E+02
3.354808231E+00  1.779245300E+02
3.375202202E+00  1.773071289E+02
3.395596173E+00  1.775099182E+02
3.415990145E+00  1.768052521E+02
3.436384116E+00  1.766694489E+02
3.456778087E+00  1.771608887E+02
3.477172058E+00  1.769212494E+02
3.497566029E+00  1.770534821E+02
3.517960000E+00  1.754879761E+02
3.538353971E+00  1.758616486E+02
3.558747942E+00  1.754047394E+02
3.579141913E+00  1.764480896E+02
3.599535884E+00  1.765278931E+02
3.619929855E+00  1.757049561E+02
3.640323826E+00  1.753590393E+02
3.660717797E+00  1.742847290E+02
3.681111768E+00  1.746886749E+02
3.701505739E+00  1.741211090E+02
3.721899710E+00  1.742662964E+02
3.742293681E+00  1.742326508E+02
3.762687652E+00  1.736989899E+02
3.783081623E+00  1.741181183E+02
3.803475594E+00  1.732655792E+02
3.823869565E+00  1.727475281E+02
3.844263536E+00  1.724918060E+02
3.864657507E+00  1.725938873E+02
3.885051478E+00  1.730351105E+02
3.905445449E+00  1.727021027E+02
3.925839420E+00  1.727105865E+02
3.946233391E+00  1.722857971E+02
3.966627362E+00  1.725635529E+02
3.987021333E+00  1.722378082E+02
4.007415304E+00  1.724043732E+02
4.027809275E+00  1.722052765E+02
4.048203246E+00  1.720430908E+02
4.068597217E+00  1.720966492E+02
4.088991188E+00  1.722584839E+02
4.109385159E+00  1.726862946E+02
4.129779130E+00  1.727874298E+02
4.150173101E+00  1.732105255E+02
4.170567072E+00  1.729248657E+02
4.190961043E+00  1.697877808E+02
4.211355014E+00  1.675435333E+02
4.231748985E+00  1.655796509E+02
4.252142956E+00  1.643894348E+02
4.272536927E+00  1.627225342E+02
4.292930898E+00  1.615995483E+02
4.313324869E+00  1.605554504E+02
4.333718840E+00  1.594288788E+02
4.354112811E+00  1.583809662E+02
4.374506782E+00  1.569544373E+02
4.394900753E+00  1.567270508E+02
4.415294724E+00  1.559447937E+02
4.435688695E+00  1.555205383E+02
4.456082666E+00  1.543721771E+02
4.476476637E+00  1.537247772E+02
4.496870608E+00  1.534519958E+02
4.517264579E+00  1.525278015E+02
4.537658550E+00  1.522452698E+02
4.558052521E+00  1.512070007E+02
4.578446492E+00  1.510837097E+02
4.598840463E+00  1.502897034E+02
4.619234434E+00  1.506105957E+02
4.639628405E+00  1.504111328E+02
4.660022376E+00  1.501991425E+02
4.680416347E+00  1.502570801E+02
4.700810318E+00  1.500136719E+02
4.721204289E+00  1.496292419E+02
4.741598260E+00  1.485857544E+02
4.761992231E+00  1.477466125E+02
4.782386202E+00  1.477460175E+02
4.802780173E+00  1.478456726E+02
4.823174144E+00  1.475769806E+02
4.843568115E+00  1.470829468E+02
4.863962086E+00  1.467378540E+02
4.884356057E+00  1.461738281E+02
4.904750028E+00  1.457676086E+02
4.925143999E+00  1.455598602E+02
4.945537970E+00  1.459720917E+02
4.965931941E+00  1.469301605E+02
4.986325912E+00  1.507335052E+02
5.006719883E+00  1.539499359E+02
5.027113854E+00  1.530292664E+02
5.047507825E+00  1.513528442E+02
5.067901796E+00  1.495662231E+02
5.088295767E+00  1.491815643E+02
5.108689739E+00  1.488495331E+02
5.129083710E+00  1.484549713E+02
5.149477681E+00  1.482966309E+02
5.169871652E+00  1.478075409E+02
5.190265623E+00  1.478726196E+02
5.210659594E+00  1.470230865E+02
5.231053565E+00  1.469088287E+02
5.251447536E+00  1.463840637E+02
5.271841507E+00  1.465663910E+02
5.292235478E+00  1.462188263E+02
5.312629449E+00  1.458246918E+02
5.333023420E+00  1.458659821E+02
5.353417391E+00  1.457387848E+02
5.373811362E+00  1.458775482E+02
5.394205333E+00  1.456729889E+02
5.414599304E+00  1.458947601E+02
5.434993275E+00  1.452192841E+02
5.455387246E+00  1.449165192E+02
5.475781217E+00  1.442770233E+02
5.496175188E+00  1.438074036E+02
5.516569159E+00  1.439849091E+02
5.536963130E+00  1.441772461E+02
5.557357101E+00  1.444981384E+02
5.577751072E+00  1.439878693E+02
5.598145043E+00  1.439217224E+02
5.618539014E+00  1.434020386E+02
5.638932985E+00  1.425332489E+02
5.659326956E+00  1.421106873E+02
5.679720927E+00  1.414945526E+02
5.700114898E+00  1.413466949E+02
5.720508869E+00  1.407777557E+02
5.740902840E+00  1.404349670E+02
5.761296811E+00  1.403393402E+02
5.781690782E+00  1.405525970E+02
5.802084753E+00  1.405054932E+02
5.822478724E+00  1.425196838E+02
5.842872695E+00  1.446398468E+02
5.863266666E+00  1.463530121E+02
5.883660637E+00  1.477902222E+02
5.904054608E+00  1.481130676E+02
5.924448579E+00  1.486945953E+02
5.944842550E+00  1.489929047E+02
5.965236521E+00  1.493840027E+02
5.985630492E+00  1.498179321E+02
6.006024463E+00  1.499800568E+02
6.026418434E+00  1.504903259E+02
6.046812405E+00  1.509195709E+02
6.067206376E+00  1.507336426E+02
6.087600347E+00  1.508085022E+02
6.107994318E+00  1.507855072E+02
6.128388289E+00  1.508061829E+02
6.148782260E+00  1.509713898E+02
6.169176231E+00  1.508312225E+02
6.189570202E+00  1.506279907E+02
6.209964173E+00  1.504138947E+02
6.230358144E+00  1.500438232E+02
6.250752115E+00  1.497987518E+02
6.271146086E+00  1.492421570E+02
6.291540057E+00  1.492866821E+02
6.311934028E+00  1.486603546E+02
6.332327999E+00  1.487406464E+02
6.352721970E+00  1.485529022E+02
6.373115941E+00  1.485370026E+02
6.393509912E+00  1.481970978E+02
6.413903883E+00  1.474575958E+02
6.434297854E+00  1.471910858E+02
6.454691825E+00  1.472101288E+02
6.475085796E+00  1.472771606E+02
6.495479767E+00  1.468973389E+02
6.515873738E+00  1.462857361E+02
6.536267709E+00  1.459494476E+02
6.556661680E+00  1.457178802E+02
6.577055651E+00  1.456719818E+02
6.597449622E+00  1.454698334E+02
6.617843593E+00  1.454644318E+02
6.638237564E+00  1.450328674E+02
6.658631535E+00  1.440928345E+02
6.679025506E+00  1.433096008E+02
6.699419477E+00  1.426578979E+02
6.719813448E+00  1.422514648E+02
6.740207419E+00  1.418710938E+02
6.760601390E+00  1.417675476E+02
6.780995361E+00  1.409982147E+02
6.801389333E+00  1.406865540E+02
6.821783304E+00  1.399924469E+02
6.842177275E+00  1.396161194E+02
6.862571246E+00  1.393398285E+02
6.882965217E+00  1.389936523E+02
6.903359188E+00  1.392835693E+02
6.923753159E+00  1.389740143E+02
6.944147130E+00  1.391076965E+02
6.964541101E+00  1.389356842E+02
6.984935072E+00  1.391995697E+02
7.005329043E+00  1.397867126E+02
7.025723014E+00  1.401647339E+02
7.046116985E+00  1.415689850E+02
7.066510956E+00  1.415380096E+02
7.086904927E+00  1.409699097E+02
7.107298898E+00  1.397193298E+02
7.127692869E+00  1.398621674E+02
7.148086840E+00  1.405448151E+02
7.168480811E+00  1.412925720E+02
7.188874782E+00  1.423609924E+02
7.209268753E+00  1.433799744E+02
7.229662724E+00  1.453407593E+02
7.250056695E+00  1.476028900E+02
7.270450666E+00  1.502965088E+02
7.290844637E+00  1.540341644E+02
7.311238608E+00  1.590899048E+02
7.331632579E+00  1.669071960E+02
7.352026550E+00  1.801425171E+02
7.372420521E+00  2.096412048E+02
7.392814492E+00  3.661508789E+02
7.413208463E+00  1.424724243E+03
7.433602434E+00  3.691924072E+03
7.453996405E+00  5.669981934E+03
7.474390376E+00  5.510381836E+03
7.494784347E+00  3.307995117E+03
7.515178318E+00  1.175687744E+03
7.535572289E+00  3.273373718E+02
7.555966260E+00  2.022150879E+02
7.576360231E+00  1.759047546E+02
7.596754202E+00  1.617252045E+02
7.617148173E+00  1.524429016E+02
7.637542144E+00  1.463518066E+02
7.657936115E+00  1.414393616E+02
7.678330086E+00  1.371491852E+02
7.698724057E+00  1.334122009E+02
7.719118028E+00  1.304952545E+02
7.739511999E+00  1.280332794E+02
7.759905970E+00  1.260249481E+02
7.780299941E+00  1.245003891E+02
7.800693912E+00  1.232309723E+02
7.821087883E+00  1.218088989E+02
7.841481854E+00  1.199414597E+02
7.861875825E+00  1.185727844E+02
7.882269796E+00  1.172988663E+02
7.902663767E+00  1.161557846E+02
7.923057738E+00  1.151095428E+02
7.943451709E+00  1.138633652E+02
7.963845680E+00  1.129381638E+02
7.984239651E+00  1.119103622E+02
8.004633622E+00  1.113606110E+02
8.025027593E+00  1.109808197E+02
8.045421564E+00  1.105021896E+02
8.065815535E+00  1.100858231E+02
8.086209506E+00  1.098468246E+02
8.106603477E+00  1.097609940E+02
8.126997448E+00  1.088287735E+02
8.147391419E+00  1.078285446E+02
8.167785390E+00  1.068401794E+02
8.188179361E+00  1.065188141E+02
8.208573332E+00  1.060804062E+02
8.228967303E+00  1.058571472E+02
8.249361274E+00  1.053063812E+02
8.269755245E+00  1.050743179E+02
8.290149216E+00  1.048315582E+02
8.310543187E+00  1.048962097E+02
8.330937158E+00  1.048810577E+02
8.351331129E+00  1.049140854E+02
8.371725100E+00  1.049032974E+02
8.392119071E+00  1.049549103E+02
8.412513042E+00  1.050852509E+02
8.432907013E+00  1.054996262E+02
8.453300984E+00  1.064578094E+02
8.473694955E+00  1.077477493E+02
8.494088927E+00  1.100846100E+02
8.514482898E+00  1.145609741E+02
8.534876869E+00  1.281476440E+02
8.555270840E+00  2.049596558E+02
8.575664811E+00  5.502377319E+02
8.596058782E+00  1.164838989E+03
8.616452753E+00  1.569383179E+03
8.636846724E+00  1.347247559E+03
8.657240695E+00  7.528779907E+02
8.677634666E+00  2.801513062E+02
8.698028637E+00  1.378177795E+02
8.718422608E+00  1.138449783E+02
8.738816579E+00  1.073829346E+02
8.759210550E+00  1.041415634E+02
8.779604521E+00  1.017718506E+02
8.799998492E+00  1.001531754E+02
8.820392463E+00  9.863378906E+01
8.840786434E+00  9.751168060E+01
8.861180405E+00  9.644444275E+01
8.881574376E+00  9.545531464E+01
8.901968347E+00  9.466477203E+01
8.922362318E+00  9.390096283E+01
8.942756289E+00  9.322648621E+01
8.963150260E+00  9.269577789E+01
8.983544231E+00  9.207174683E+01
9.003938202E+00  9.155393982E+01
9.024332173E+00  9.090200043E+01
9.044726144E+00  9.043668365E+01
9.065120115E+00  8.988755035E+01
9.085514086E+00  8.951059723E+01
9.105908057E+00  8.909178925E+01
9.126302028E+00  8.874912262E+01
9.146695999E+00  8.825363922E+01
9.167089970E+00  8.764315796E+01
9.187483941E+00  8.729433441E+01
9.207877912E+00  8.679851532E+01
9.228271883E+00  8.645648193E+01
9.248665854E+00  8.639231873E+01
9.269059825E+00  8.602929688E+01
9.289453796E+00  8.580829620E+01
9.309847767E+00  8.558046722E+01
9.330241738E+00  8.552927399E+01
9.350635709E+00  8.498210907E+01
9.371029680E+00  8.460043335E+01
9.391423651E+00  8.435140991E+01
9.411817622E+00  8.416685486E+01
9.432211593E+00  8.367343140E+01
9.452605564E+00  8.356028748E+01
9.472999535E+00  8.301589966E+01
9.493393506E+00  8.274403381E+01
9.513787477E+00  8.237631226E+01
9.534181448E+00  8.243079376E+01
9.554575419E+00  8.243933868E+01
9.574969390E+00  8.206974792E+01
9.595363361E+00  8.178282166E+01
9.615757332E+00  8.142011261E+01
9.636151303E+00  8.107323456E+01
9.656545274E+00  8.079644775E+01
9.676939245E+00  8.093591309E+01
9.697333216E+00  8.083834076E+01
9.717727187E+00  8.046846771E+01
9.738121158E+00  8.004888153E+01
9.758515129E+00  7.995338440E+01
9.778909100E+00  7.986044312E+01
9.799303071E+00  7.999044800E+01
9.819697042E+00  7.965402985E+01
9.840091013E+00  7.948494720E+01
9.860484984E+00  7.919360352E+01
9.880878955E+00  7.909763336E+01
9.901272926E+00  7.918828583E+01
9.921666897E+00  7.915414429E+01
9.942060868E+00  7.913982391E+01
9.962454839E+00  7.893485260E+01
9.982848810E+00  7.866032410E+01
1.000324278E+01  7.857237244E+01
1.002363675E+01  7.830696106E+01
1.004403072E+01  7.817281342E+01
1.006442469E+01  7.782882690E+01
1.008481867E+01  7.762496948E+01
1.010521264E+01  7.760137939E+01
1.012560661E+01  7.761782074E+01
1.014600058E+01  7.739416504E+01
1.016639455E+01  7.745281982E+01
1.018678852E+01  7.751461029E+01
1.020718249E+01  7.764408112E+01
1.022757646E+01  7.736043549E+01
1.024797043E+01  7.750512695E+01
1.026836440E+01  7.735832214E+01
1.028875838E+01  7.758943939E+01
1.030915235E+01  7.750060272E+01
1.032954632E+01  7.772743225E+01
1.034994029E+01  7.776918793E+01
1.037033426E+01  7.797077179E+01
1.039072823E+01  7.833042145E+01
1.041112220E+01  7.902008820E+01
1.043151617E+01  7.978076172E+01
1.045191014E+01  8.066091156E+01
1.047230411E+01  8.140057373E+01
1.049269809E+01  8.149153900E+01
1.051309206E+01  8.073727417E+01
1.053348603E+01  8.020339966E+01
1.055388000E+01  7.933171082E+01
1.057427397E+01  7.867053986E+01
1.059466794E+01  7.797083282E+01
1.061506191E+01  7.767374420E+01
1.063545588E+01  7.768641663E+01
1.065584985E+01  7.770084381E+01
1.067624382E+01  7.744412231E+01
1.069663780E+01  7.735607910E+01
1.071703177E+01  7.729882050E+01
1.073742574E+01  7.741408539E+01
1.075781971E+01  7.747427368E+01
1.077821368E+01  7.769433594E+01
1.079860765E+01  7.759883118E+01
1.081900162E+01  7.768746948E+01
1.083939559E+01  7.768985748E+01
1.085978956E+01  7.789756012E+01
1.088018353E+01  7.797785187E+01
1.090057751E+01  7.809953308E+01
1.092097148E+01  7.819093323E+01
1.094136545E+01  7.847511292E+01
1.096175942E+01  7.864456177E+01
1.098215339E+01  7.851880646E+01
1.100254736E+01  7.836582184E+01
1.102294133E+01  7.795373535E+01
1.104333530E+01  7.783201599E+01
1.106372927E+01  7.742491913E+01
1.108412325E+01  7.759562683E+01
1.110451722E+01  7.762462616E+01
1.112491119E+01  7.782485199E+01
1.114530516E+01  7.785060883E+01
1.116569913E+01  7.798610687E+01
1.118609310E+01  7.805210876E+01
1.120648707E+01  7.814922333E+01
1.122688104E+01  7.827077484E+01
1.124727501E+01  7.830500031E+01
1.126766898E+01  7.837325287E+01
1.128806296E+01  7.852268219E+01
1.130845693E+01  7.855853271E+01
1.132885090E+01  7.848624420E+01
1.134924487E+01  7.882202148E+01
1.136963884E+01  7.879306793E+01
1.139003281E+01  7.896745300E+01
1.141042678E+01  7.894759369E+01
1.143082075E+01  7.893727112E+01
1.145121472E+01  7.877615356E+01
1.147160869E+01  7.897742462E+01
1.149200267E+01  7.928996277E+01
1.151239664E+01  7.964861298E+01
1.153279061E+01  7.982445526E+01
1.155318458E+01  7.984474182E+01
1.157357855E+01  8.014988708E+01
1.159397252E+01  8.050717163E+01
1.161436649E+01  8.094091797E+01
1.163476046E+01  8.116452789E+01
1.165515443E+01  8.134746552E+01
1.167554840E+01  8.159120941E+01
1.169594238E+01  8.171499634E+01
1.171633635E+01  8.190940094E+01
1.173673032E+01  8.230908966E+01
1.175712429E+01  8.293320465E+01
1.177751826E+01  8.353308105E+01
1.179791223E+01  8.434915924E+01
1.181830620E+01  8.538830566E+01
1.183870017E+01  8.628905487E+01
1.185909414E+01  8.700202942E+01
1.187948811E+01  8.780243683E+01
1.189988209E+01  8.879007721E+01
1.192027606E+01  8.994432068E+01
1.194067003E+01  9.118233490E+01
1.196106400E+01  9.293804169E+01
1.198145797E+01  9.521623230E+01
1.200185194E+01  9.785391235E+01
1.202224591E+01  1.010630264E+02
1.204263988E+01  1.052898636E+02
1.206303385E+01  1.112926178E+02
1.208342782E+01  1.212683945E+02
1.210382180E+01  1.386778870E+02
1.212421577E+01  1.950067902E+02
1.214460974E+01  6.555103760E+02
1.216500371E+01  2.094582764E+03
1.218539768E+01  4.044707275E+03
1.220579165E+01  4.949346191E+03
1.222618562E+01  3.692337891E+03
1.224657959E+01  1.564354370E+03
1.226697356E+01  4.027763062E+02
1.228736753E+01  1.782462006E+02
1.230776151E+01  1.327573700E+02
1.232815548E+01  1.184286575E+02
1.234854945E+01  1.101081772E+02
1.236894342E+01  1.042690506E+02
1.238933739E+01  1.002258377E+02
1.240973136E+01  9.766347504E+01
1.243012533E+01  9.555806732E+01
1.245051930E+01  9.359318542E+01
1.247091327E+01  9.158679962E+01
1.249130724E+01  8.983918762E+01
1.251170122E+01  8.844324493E+01
1.253209519E+01  8.706668091E+01
1.255248916E+01  8.590960693E+01
1.257288313E+01  8.496527863E+01
1.259327710E+01  8.440653229E+01
1.261367107E+01  8.361296844E+01
1.263406504E+01  8.323988342E+01
1.265445901E+01  8.270153046E+01
1.267485298E+01  8.230552673E+01
1.269524695E+01  8.152723694E+01
1.271564093E+01  8.096111298E+01
1.273603490E+01  8.045372009E+01
1.275642887E+01  8.022789764E+01
1.277682284E+01  7.999721527E+01
1.279721681E+01  7.985438538E+01
1.281761078E+01  7.955144501E+01
1.283800475E+01  7.941778564E+01
1.285839872E+01  7.911624146E+01
1.287879269E+01  7.889031219E+01
1.289918667E+01  7.847013855E+01
1.291958064E+01  7.832765198E+01
1.293997461E+01  7.805831909E+01
1.296036858E+01  7.786498260E+01
1.298076255E+01  7.768483734E+01
1.300115652E+01  7.759026337E+01
1.302155049E+01  7.748715210E+01
1.304194446E+01  7.741793823E+01
1.306233843E+01  7.729120636E+01
1.308273240E+01  7.705193329E+01
1.310312638E+01  7.684162140E+01
1.312352035E+01  7.680996704E+01
1.314391432E+01  7.661866760E+01
1.316430829E+01  7.654358673E+01
1.318470226E+01  7.665940857E+01
1.320509623E+01  7.686427307E+01
1.322549020E+01  7.679447937E+01
1.324588417E+01  7.676844788E+01
1.326627814E+01  7.650107574E+01
1.328667211E+01  7.666367340E+01
1.330706609E+01  7.645424652E+01
1.332746006E+01  7.643361664E+01
1.334785403E+01  7.627874756E+01
1.336824800E+01  7.676696777E+01
1.338864197E+01  7.701140594E+01
1.340903594E+01  7.707811737E+01
1.342942991E+01  7.694867706E+01
1.344982388E+01  7.702178955E+01
1.347021785E+01  7.699832153E+01
1.349061182E+01  7.691703033E+01
1.351100580E+01  7.658826447E+01
1.353139977E+01  7.663964844E+01
1.355179374E+01  7.693291473E+01
1.357218771E+01  7.722444916E+01
1.359258168E+01  7.727899933E+01
1.361297565E+01  7.722120667E+01
1.363336962E+01  7.727365112E+01
1.365376359E+01  7.734086609E+01
1.367415756E+01  7.735658264E+01
1.369455153E+01  7.767041779E+01
1.371494551E+01  7.806150818E+01
1.373533948E+01  7.859083557E+01
1.375573345E+01  7.850440979E+01
1.377612742E+01  7.872621918E+01
1.379652139E+01  7.884794617E+01
1.381691536E+01  7.915643311E+01
1.383730933E+01  7.941650391E+01
1.385770330E+01  7.981973267E+01
1.387809727E+01  8.036574554E+01
1.389849124E+01  8.096800995E+01
1.391888522E+01  8.151401520E+01
1.393927919E+01  8.075201416E+01
1.395967316E+01  8.036521149E+01
1.398006713E+01  8.042833710E+01
1.400046110E+01  8.104502106E+01
1.402085507E+01  8.144028473E+01
1.404124904E+01  8.200312805E+01
1.406164301E+01  8.279145813E+01
1.408203698E+01  8.397718811E+01
1.410243095E+01  8.543301392E+01
1.412282493E+01  8.716995239E+01
1.414321890E+01  8.939324188E+01
1.416361287E+01  9.257188416E+01
1.418400684E+01  9.747315979E+01
1.420440081E+01  1.061755829E+02
1.422479478E+01  1.402754059E+02
1.424518875E+01  2.334963379E+02
1.426558272E+01  6.642330322E+02
1.428597669E+01  1.719557739E+03
1.430637066E+01  2.936994385E+03
1.432676464E+01  3.004376709E+03
1.434715861E+01  1.970308960E+03
1.436755258E+01  7.683778687E+02
1.438794655E+01  2.639205017E+02
1.440834052E+01  1.309004364E+02
1.442873449E+01  1.067007065E+02
1.444912846E+01  9.699367523E+01
1.446952243E+01  9.128012085E+01
1.448991640E+01  8.760153961E+01
1.451031038E+01  8.463428497E+01
1.453070435E+01  8.251701355E+01
1.455109832E+01  8.077215576E+01
1.457149229E+01  7.936733246E+01
1.459188626E+01  7.803400421E+01
1.461228023E+01  7.688729095E+01
1.463267420E+01  7.613468170E+01
1.465306817E+01  7.545060730E+01
1.467346214E+01  7.509143829E+01
1.469385611E+01  7.525523376E+01
1.471425009E+01  7.487236023E+01
1.473464406E+01  7.460038757E+01
1.475503803E+01  7.421866608E+01
1.477543200E+01  7.405605316E+01
1.479582597E+01  7.391549683E+01
1.481621994E+01  7.445081329E+01
1.483661391E+01  7.525435638E+01
1.485700788E+01  7.712946320E+01
1.487740185E+01  8.306639862E+01
1.489779582E+01  1.208348923E+02
1.491818980E+01  2.469576874E+02
1.493858377E+01  4.371264038E+02
1.495897774E+01  5.380324097E+02
1.497937171E+01  4.385379944E+02
1.499976568E+01  2.389343719E+02
1.502015965E+01  1.110889282E+02
1.504055362E+01  8.054323578E+01
1.506094759E+01  7.334066010E+01
1.508134156E+01  7.127883148E+01
1.510173553E+01  7.019152832E+01
1.512212951E+01  6.929260254E+01
1.514252348E+01  6.832508850E+01
1.516291745E+01  6.786644745E+01
1.518331142E+01  6.757622528E+01
1.520370539E+01  6.757292938E+01
1.522409936E+01  6.724824524E+01
1.524449333E+01  6.677469635E+01
1.526488730E+01  6.637300873E+01
1.528528127E+01  6.600121307E+01
1.530567524E+01  6.585488129E+01
1.532606922E+01  6.550129700E+01
1.534646319E+01  6.512543488E+01
1.536685716E+01  6.486862946E+01
1.538725113E+01  6.469920349E+01
1.540764510E+01  6.466963959E+01
1.542803907E+01  6.450405884E+01
1.544843304E+01  6.515502167E+01
1.546882701E+01  6.593601227E+01
1.548922098E+01  6.651556396E+01
1.550961495E+01  6.663634491E+01
1.553000893E+01  6.670824432E+01
1.555040290E+01  6.697906494E+01
1.557079687E+01  6.733546448E+01
1.559119084E+01  6.765154266E+01
1.561158481E+01  6.753476715E+01
1.563197878E+01  6.735675812E+01
1.565237275E+01  6.742302704E+01
1.567276672E+01  6.764751434E+01
1.569316069E+01  6.781869507E+01
1.571355466E+01  6.819306183E+01
1.573394864E+01  6.823966980E+01
1.575434261E+01  6.831078339E+01
1.577473658E+01  6.817376709E+01
1.579513055E+01  6.809202576E+01
1.581552452E+01  6.816537476E+01
1.583591849E+01  6.825834656E+01
1.585631246E+01  6.842595673E+01
1.587670643E+01  6.853919983E+01
1.589710040E+01  6.879123688E+01
1.591749437E+01  6.875508881E+01
1.593788835E+01  6.862732697E+01
1.595828232E+01  6.866342926E+01
1.597867629E+01  6.890750122E+01
1.599907026E+01  6.912533569E+01
1.601946423E+01  6.926255035E+01
1.603985820E+01  6.923753357E+01
1.606025217E+01  6.944930267E+01
1.608064614E+01  6.955258942E+01
1.610104011E+01  6.949649048E+01
1.612143408E+01  6.947457886E+01
1.614182806E+01  6.959114075E+01
1.616222203E+01  6.972051239E+01
1.618261600E+01  6.982764435E+01
1.620300997E+01  6.984393311E+01
1.622340394E+01  6.976625061E+01
1.624379791E+01  6.981601715E+01
1.626419188E+01  6.992608643E+01
1.628458585E+01  6.993153381E+01
1.630497982E+01  7.002337646E+01
1.632537380E+01  7.011290741E+01
1.634576777E+01  7.030229950E+01
1.636616174E+01  7.018753052E+01
1.638655571E+01  7.027359009E+01
1.640694968E+01  7.016948700E+01
1.642734365E+01  7.012218475E+01
1.644773762E+01  7.002793884E+01
1.646813159E+01  7.022684479E+01
1.648852556E+01  7.026958466E+01
1.650891953E+01  7.030064392E+01
1.652931351E+01  7.033622742E+01
1.654970748E+01  7.043302917E+01
1.657010145E+01  7.042342377E+01
1.659049542E+01  7.047372437E+01
1.661088939E+01  7.086632538E+01
1.663128336E+01  7.102133942E+01
1.665167733E+01  7.084277344E+01
1.667207130E+01  7.066088867E+01
1.669246527E+01  7.079743195E+01
1.671285924E+01  7.100297546E+01
1.673325322E+01  7.125166321E+01
1.675364719E+01  7.127791595E+01
1.677404116E+01  7.145556641E+01
1.679443513E+01  7.177433777E+01
1.681482910E+01  7.198371887E+01
1.683522307E+01  7.196141815E+01
1.685561704E+01  7.187078094E+01
1.687601101E+01  7.192105103E+01
1.689640498E+01  7.216986847E+01
1.691679895E+01  7.253422546E+01
1.693719293E+01  7.277417755E+01
1.695758690E+01  7.317453766E+01
1.697798087E+01  7.345003510E+01
1.699837484E+01  7.363339233E+01
1.701876881E+01  7.394896698E+01
1.703916278E+01  7.437609100E+01
1.705955675E+01  7.458257294E+01
1.707995072E+01  7.474130249E+01
1.710034469E+01  7.492298889E+01
1.712073866E+01  7.557555389E+01
1.714113264E+01  7.629254150E+01
1.716152661E+01  7.761888885E+01
1.718192058E+01  7.982715607E+01
1.720231455E+01  8.602693176E+01
1.722270852E+01  1.218193817E+02
1.724310249E+01  2.489243927E+02
1.726349646E+01  5.060038452E+02
1.728389043E+01  6.881448975E+02
1.730428440E+01  5.902900391E+02
1.732467837E+01  3.213429871E+02
1.734507235E+01  1.454476776E+02
1.736546632E+01  9.365898132E+01
1.738586029E+01  8.226738739E+01
1.740625426E+01  7.921937561E+01
1.742664823E+01  7.791454315E+01
1.744704220E+01  7.706642914E+01
1.746743617E+01  7.644060516E+01
1.748783014E+01  7.598615265E+01
1.750822411E+01  7.547255707E+01
1.752861808E+01  7.515213776E+01
1.754901206E+01  7.503515625E+01
1.756940603E+01  7.477315521E+01
1.758980000E+01  7.443206024E+01
1.761019397E+01  7.413655090E+01
1.763058794E+01  7.403380585E+01
1.765098191E+01  7.380797577E+01
1.767137588E+01  7.388649750E+01
1.769176985E+01  7.405288696E+01
1.771216382E+01  7.426643372E+01
1.773255779E+01  7.424079895E+01
1.775295177E+01  7.442779541E+01
1.777334574E+01  7.448487091E+01
1.779373971E+01  7.423831177E+01
1.781413368E+01  7.396643066E+01
1.783452765E+01  7.395018768E+01
1.785492162E+01  7.412322235E+01
1.787531559E+01  7.439318085E+01
1.789570956E+01  7.423526764E+01
1.791610353E+01  7.420307922E+01
1.793649751E+01  7.421464539E+01
1.795689148E+01  7.432560730E+01
1.797728545E+01  7.435285187E+01
1.799767942E+01  7.447370911E+01
1.801807339E+01  7.448293304E+01
1.803846736E+01  7.466854095E+01
1.805886133E+01  7.494271088E+01
1.807925530E+01  7.535295105E+01
1.809964927E+01  7.580059052E+01
1.812004324E+01  7.604349518E+01
1.814043722E+01  7.632104492E+01
1.816083119E+01  7.655778503E+01
1.818122516E+01  7.676816559E+01
1.820161913E+01  7.688242340E+01
1.822201310E+01  7.708942413E+01
1.824240707E+01  7.700170898E+01
1.826280104E+01  7.694940948E+01
1.828319501E+01  7.682347870E+01
1.830358898E+01  7.704841614E+01
1.832398295E+01  7.715257263E+01
1.834437693E+01  7.718843842E+01
1.836477090E+01  7.710592651E+01
1.838516487E+01  7.699610138E+01
1.840555884E+01  7.695744324E+01
1.842595281E+01  7.731716156E+01
1.844634678E+01  7.761265564E+01
1.846674075E+01  7.784888458E+01
1.848713472E+01  7.813153076E+01
1.850752869E+01  7.863364410E+01
1.852792266E+01  7.913208771E+01
1.854831664E+01  7.945582581E+01
1.856871061E+01  8.000254822E+01
1.858910458E+01  8.071799469E+01
1.860949855E+01  8.152304840E+01
1.862989252E+01  8.254409027E+01
1.865028649E+01  8.356405640E+01
1.867068046E+01  8.452997589E+01
1.869107443E+01  8.595278931E+01
1.871146840E+01  8.841284180E+01
1.873186237E+01  9.219606781E+01
1.875225635E+01  9.844550323E+01
1.877265032E+01  1.197275772E+02
1.879304429E+01  2.476828461E+02
1.881343826E+01  7.328742065E+02
1.883383223E+01  1.356869629E+03
1.885422620E+01  1.592321533E+03
1.887462017E+01  1.176298706E+03
1.889501414E+01  5.152683105E+02
1.891540811E+01  2.019493103E+02
1.893580208E+01  1.171548080E+02
1.895619606E+01  9.981293488E+01
1.897659003E+01  9.408441925E+01
1.899698400E+01  9.097000122E+01
1.901737797E+01  8.897585297E+01
1.903777194E+01  8.760039520E+01
1.905816591E+01  8.661730194E+01
1.907855988E+01  8.591934204E+01
1.909895385E+01  8.541249847E+01
1.911934782E+01  8.506604767E+01
1.913974179E+01  8.514017487E+01
1.916013577E+01  8.549579620E+01
1.918052974E+01  8.611436462E+01
1.920092371E+01  8.706275940E+01
1.922131768E+01  8.882626343E+01
1.924171165E+01  9.212765503E+01
1.926210562E+01  1.017467041E+02
1.928249959E+01  1.615671387E+02
1.930289356E+01  3.950467529E+02
1.932328753E+01  8.242745361E+02
1.934368150E+01  1.044671997E+03
1.936407548E+01  8.407562866E+02
1.938446945E+01  4.527350464E+02
1.940486342E+01  1.803496857E+02
1.942525739E+01  1.053203430E+02
1.944565136E+01  9.102338409E+01
1.946604533E+01  8.685096741E+01
1.948643930E+01  8.447834015E+01
1.950683327E+01  8.271076202E+01
1.952722724E+01  8.127706146E+01
1.954762122E+01  8.045623779E+01
1.956801519E+01  7.961028290E+01
1.958840916E+01  7.893993378E+01
1.960880313E+01  7.858764648E+01
1.962919710E+01  7.828303528E+01
1.964959107E+01  7.771127319E+01
1.966998504E+01  7.730300140E+01
1.969037901E+01  7.679891205E+01
1.971077298E+01  7.613504028E+01
1.973116695E+01  7.590785980E+01
1.975156093E+01  7.569723511E+01
1.977195490E+01  7.521627808E+01
1.979234887E+01  7.464089966E+01
1.981274284E+01  7.431915283E+01
1.983313681E+01  7.422072601E+01
1.985353078E+01  7.407032776E+01
1.987392475E+01  7.393772125E+01
1.989431872E+01  7.365252686E+01
1.991471269E+01  7.324440002E+01
1.993510666E+01  7.284337616E+01
1.995550064E+01  7.268573761E+01
1.997589461E+01  7.267846680E+01
1.999628858E+01  7.254879761E+01
2.001668255E+01  7.233403778E+01
2.003707652E+01  7.206654358E+01
2.005747049E+01  7.192177582E+01
2.007786446E+01  7.159376526E+01
2.009825843E+01  7.139483643E+01
2.011865240E+01  7.114620972E+01
2.013904637E+01  7.098074341E+01
2.015944035E+01  7.076613617E+01
2.017983432E+01  7.065534210E+01
2.020022829E+01  7.056365204E+01
2.022062226E+01  7.039110565E+01
2.024101623E+01  7.022044373E+01
2.026141020E+01  7.022133636E+01
2.028180417E+01  7.016225433E+01
2.030219814E+01  6.995178223E+01
2.032259211E+01  6.983550262E+01
2.034298608E+01  6.977335358E+01
2.036338006E+01  6.962448883E+01
2.038377403E+01  6.934712219E+01
2.040416800E+01  6.920413208E+01
2.042456197E+01  6.906399536E+01
2.044495594E+01  6.877660370E+01
2.046534991E+01  6.874082947E+01
2.048574388E+01  6.880819702E+01
2.050613785E+01  6.874977875E+01
2.052653182E+01  6.864490509E+01
2.054692579E+01  6.857170105E+01
2.056731977E+01  6.843361664E+01
2.058771374E+01  6.832830048E+01
2.060810771E+01  6.821886444E+01
2.062850168E+01  6.826413727E+01
2.064889565E+01  6.821460724E+01
2.066928962E+01  6.813906097E+01
2.068968359E+01  6.816470337E+01
2.071007756E+01  6.811585236E+01
2.073047153E+01  6.826436615E+01
2.075086550E+01  6.828054047E+01
2.077125948E+01  6.824419403E+01
2.079165345E+01  6.836235809E+01
2.081204742E+01  6.855107880E+01
2.083244139E+01  6.866597748E+01
2.085283536E+01  6.895851135E+01
2.087322933E+01  6.924712372E+01
2.089362330E+01  6.936310577E+01
2.091401727E+01  6.963629150E+01
2.093441124E+01  6.998170471E+01
2.095480521E+01  7.048387146E+01
2.097519919E+01  7.119447327E+01
2.099559316E+01  7.217240906E+01
2.101598713E+01  7.309449768E+01
2.103638110E+01  7.412717438E+01
2.105677507E+01  7.578443146E+01
2.107716904E+01  7.824958038E+01
2.109756301E+01  8.202976227E+01
2.111795698E+01  9.014974976E+01
2.113835095E+01  1.231834641E+02
2.115874492E+01  3.323285828E+02
2.117913890E+01  8.199662476E+02
2.119953287E+01  1.336057983E+03
2.121992684E+01  1.344789917E+03
2.124032081E+01  8.483753052E+02
2.126071478E+01  3.567244873E+02
2.128110875E+01  1.389525452E+02
2.130150272E+01  9.377568817E+01
2.132189669E+01  8.345839691E+01
2.134229066E+01  7.867451477E+01
2.136268464E+01  7.578472137E+01
2.138307861E+01  7.384696198E+01
2.140347258E+01  7.248954010E+01
2.142386655E+01  7.175554657E+01
2.144426052E+01  7.076358032E+01
2.146465449E+01  6.971659088E+01
2.148504846E+01  6.892967224E+01
2.150544243E+01  6.844509888E+01
2.152583640E+01  6.800584412E+01
2.154623037E+01  6.743688965E+01
2.156662435E+01  6.717247009E+01
2.158701832E+01  6.694406128E+01
2.160741229E+01  6.688947296E+01
2.162780626E+01  6.650865173E+01
2.164820023E+01  6.617016602E+01
2.166859420E+01  6.605760956E+01
2.168898817E+01  6.591716003E+01
2.170938214E+01  6.553104401E+01
2.172977611E+01  6.523468018E+01
2.175017008E+01  6.509638977E+01
2.177056406E+01  6.512250519E+01
2.179095803E+01  6.513339233E+01
2.181135200E+01  6.482296753E+01
2.183174597E+01  6.468569183E+01
2.185213994E+01  6.474639130E+01
2.187253391E+01  6.495226288E+01
2.189292788E+01  6.484494781E+01
2.191332185E+01  6.481184387E+01
2.193371582E+01  6.488397980E+01
2.195410979E+01  6.497078705E+01
2.197450377E+01  6.506230164E+01
2.199489774E+01  6.518936157E+01
2.201529171E+01  6.516838074E+01
2.203568568E+01  6.494364929E+01
2.205607965E+01  6.477131653E+01
2.207647362E+01  6.481922913E+01
2.209686759E+01  6.492179871E+01
2.211726156E+01  6.524542236E+01
2.213765553E+01  6.539699554E+01
2.215804950E+01  6.550308990E+01
2.217844348E+01  6.569967651E+01
2.219883745E+01  6.603729248E+01
2.221923142E+01  6.622114563E+01
2.223962539E+01  6.644204712E+01
2.226001936E+01  6.670658875E+01
2.228041333E+01  6.730217743E+01
2.230080730E+01  6.799942780E+01
2.232120127E+01  6.890509033E+01
2.234159524E+01  6.993150330E+01
2.236198921E+01  7.137730408E+01
2.238238319E+01  7.368321991E+01
2.240277716E+01  7.715475464E+01
2.242317113E+01  8.452223206E+01
2.244356510E+01  1.144130020E+02
2.246395907E+01  2.841162415E+02
2.248435304E+01  6.809990845E+02
2.250474701E+01  1.148118286E+03
2.252514098E+01  1.183733276E+03
2.254553495E+01  7.717946777E+02
2.256592892E+01  3.256017151E+02
2.258632290E+01  1.278957062E+02
2.260671687E+01  8.857773590E+01
2.262711084E+01  8.001676178E+01
2.264750481E+01  7.644716644E+01
2.266789878E+01  7.397708130E+01
2.268829275E+01  7.217713165E+01
2.270868672E+01  7.087958527E+01
2.272908069E+01  6.999649048E+01
2.274947466E+01  6.914893341E+01
2.276986863E+01  6.832871246E+01
2.279026261E+01  6.781106567E+01
2.281065658E+01  6.746350861E+01
2.283105055E+01  6.713423920E+01
2.285144452E+01  6.691595459E+01
2.287183849E+01  6.655210876E+01
2.289223246E+01  6.639006805E+01
2.291262643E+01  6.630722809E+01
2.293302040E+01  6.608957672E+01
2.295341437E+01  6.559768677E+01
2.297380835E+01  6.524321747E+01
2.299420232E+01  6.515415955E+01
2.301459629E+01  6.495550537E+01
2.303499026E+01  6.484387207E+01
2.305538423E+01  6.480164337E+01
2.307577820E+01  6.482443237E+01
2.309617217E+01  6.473948669E+01
2.311656614E+01  6.455354309E+01
2.313696011E+01  6.425272369E+01
2.315735408E+01  6.415930939E+01
2.317774806E+01  6.401271057E+01
2.319814203E+01  6.371367264E+01
2.321853600E+01  6.370111084E+01
2.323892997E+01  6.377889252E+01
2.325932394E+01  6.380004883E+01
2.327971791E+01  6.373325729E+01
2.330011188E+01  6.363458252E+01
2.332050585E+01  6.363585663E+01
2.334089982E+01  6.383299255E+01
2.336129379E+01  6.380700302E+01
2.338168777E+01  6.390242767E+01
2.340208174E+01  6.382415390E+01
2.342247571E+01  6.361208344E+01
2.344286968E+01  6.344975662E+01
2.346326365E+01  6.364669418E+01
2.348365762E+01  6.369435883E+01
2.350405159E+01  6.370912552E+01
2.352444556E+01  6.363299561E+01
2.354483953E+01  6.365092468E+01
2.356523350E+01  6.379080200E+01
2.358562748E+01  6.368949509E+01
2.360602145E+01  6.358126068E+01
2.362641542E+01  6.355353165E+01
2.364680939E+01  6.367181015E+01
2.366720336E+01  6.349841309E+01
2.368759733E+01  6.324804688E+01
2.370799130E+01  6.295874405E+01
2.372838527E+01  6.303597260E+01
2.374877924E+01  6.307889938E+01
2.376917321E+01  6.291227722E+01
2.378956719E+01  6.263142014E+01
2.380996116E+01  6.261815262E+01
2.383035513E+01  6.277866364E+01
2.385074910E+01  6.293265915E+01
2.387114307E+01  6.292581558E+01
2.389153704E+01  6.267692947E+01
2.391193101E+01  6.252058029E+01
2.393232498E+01  6.273474503E+01
2.395271895E+01  6.279396820E+01
2.397311292E+01  6.304817581E+01
2.399350690E+01  6.322319031E+01
2.401390087E+01  6.340932846E+01
2.403429484E+01  6.339939499E+01
2.405468881E+01  6.324936295E+01
2.407508278E+01  6.317573929E+01
2.409547675E+01  6.336208344E+01
2.411587072E+01  6.358578491E+01
2.413626469E+01  6.353887939E+01
2.415665866E+01  6.355258942E+01
2.417705263E+01  6.352798843E+01
2.419744661E+01  6.330422592E+01
2.421784058E+01  6.339012909E+01
2.423823455E+01  6.390244675E+01
2.425862852E+01  6.429035187E+01
2.427902249E+01  6.435746765E+01
2.429941646E+01  6.449750519E+01
2.431981043E+01  6.469862366E+01
2.434020440E+01  6.493064117E+01
2.436059837E+01  6.519744110E+01
2.438099234E+01  6.582192993E+01
2.440138632E+01  6.672373199E+01
2.442178029E+01  6.818482971E+01
2.444217426E+01  7.087667084E+01
2.446256823E+01  8.098258209E+01
2.448296220E+01  1.205338898E+02
2.450335617E+01  2.387332764E+02
2.452375014E+01  4.210021057E+02
2.454414411E+01  4.958778687E+02
2.456453808E+01  3.840029907E+02
2.458493205E+01  2.060446625E+02
2.460532603E+01  1.032340698E+02
2.462572000E+01  7.587536621E+01
2.464611397E+01  7.042465973E+01
2.466650794E+01  6.846422577E+01
2.468690191E+01  6.727573395E+01
2.470729588E+01  6.638545990E+01
2.472768985E+01  6.555254364E+01
2.474808382E+01  6.532634735E+01
2.476847779E+01  6.533514404E+01
2.478887177E+01  6.527618408E+01
2.480926574E+01  6.498970032E+01
2.482965971E+01  6.464282227E+01
2.485005368E+01  6.432512665E+01
2.487044765E+01  6.429696655E+01
2.489084162E+01  6.434596252E+01
2.491123559E+01  6.416139984E+01
2.493162956E+01  6.405606079E+01
2.495202353E+01  6.403021240E+01
2.497241750E+01  6.405862427E+01
2.499281148E+01  6.412141418E+01
2.501320545E+01  6.417609406E+01
2.503359942E+01  6.412286377E+01
2.505399339E+01  6.392061234E+01
2.507438736E+01  6.395925522E+01
2.509478133E+01  6.405423737E+01
2.511517530E+01  6.419730377E+01
2.513556927E+01  6.417644501E+01
2.515596324E+01  6.418175507E+01
2.517635721E+01  6.416220856E+01
2.519675119E+01  6.398503113E+01
2.521714516E+01  6.410783386E+01
2.523753913E+01  6.430101013E+01
2.525793310E+01  6.449308777E+01
2.527832707E+01  6.483882141E+01
2.529872104E+01  6.508121490E+01
2.531911501E+01  6.528166962E+01
2.533950898E+01  6.522671509E+01
2.535990295E+01  6.546514130E+01
2.538029692E+01  6.584771729E+01
2.540069090E+01  6.651627350E+01
2.542108487E+01  6.692547607E+01
2.544147884E+01  6.744497681E+01
2.546187281E+01  6.811493683E+01
2.548226678E+01  6.894680023E+01
2.550266075E+01  7.000643921E+01
2.552305472E+01  7.143051910E+01
2.554344869E+01  7.353362274E+01
2.556384266E+01  7.658683014E+01
2.558423663E+01  8.216014862E+01
2.560463061E+01  9.964840698E+01
2.562502458E+01  1.899172516E+02
2.564541855E+01  4.510874939E+02
2.566581252E+01  9.042370605E+02
2.568620649E+01  1.107959839E+03
2.570660046E+01  8.947529907E+02
2.572699443E+01  4.608029175E+02
2.574738840E+01  1.854162445E+02
2.576778237E+01  1.020554276E+02
2.578817634E+01  8.542637634E+01
2.580857032E+01  8.070249939E+01
2.582896429E+01  7.849319458E+01
2.584935826E+01  7.693977356E+01
2.586975223E+01  7.620328522E+01
2.589014620E+01  7.583863068E+01
2.591054017E+01  7.602601624E+01
2.593093414E+01  7.667015076E+01
2.595132811E+01  7.866438293E+01
2.597172208E+01  8.477468109E+01
2.599211605E+01  1.262092438E+02
2.601251003E+01  2.604454346E+02
2.603290400E+01  4.846378174E+02
2.605329797E+01  6.315542603E+02
2.607369194E+01  5.313740845E+02
2.609408591E+01  3.049822998E+02
2.611447988E+01  1.381608429E+02
2.613487385E+01  8.759459686E+01
2.615526782E+01  7.756573486E+01
2.617566179E+01  7.447962952E+01
2.619605576E+01  7.259834290E+01
2.621644974E+01  7.111415100E+01
2.623684371E+01  7.032743835E+01
2.625723768E+01  6.959371185E+01
2.627763165E+01  6.935335541E+01
2.629802562E+01  6.910154724E+01
2.631841959E+01  6.843492889E+01
2.633881356E+01  6.758592987E+01
2.635920753E+01  6.692690277E+01
2.637960150E+01  6.653236389E+01
2.639999548E+01  6.656350708E+01
2.642038945E+01  6.624625397E+01
2.644078342E+01  6.594962311E+01
2.646117739E+01  6.569026947E+01
2.648157136E+01  6.566340637E+01
2.650196533E+01  6.558296967E+01
2.652235930E+01  6.547106934E+01
2.654275327E+01  6.540412903E+01
2.656314724E+01  6.534126282E+01
2.658354121E+01  6.535565186E+01
2.660393519E+01  6.532463074E+01
2.662432916E+01  6.519644928E+01
2.664472313E+01  6.497184753E+01
2.666511710E+01  6.463981628E+01
2.668551107E+01  6.471693420E+01
2.670590504E+01  6.476757812E+01
2.672629901E+01  6.502359009E+01
2.674669298E+01  6.500968170E+01
2.676708695E+01  6.517398834E+01
2.678748092E+01  6.482406616E+01
2.680787490E+01  6.469293213E+01
2.682826887E+01  6.451491547E+01
2.684866284E+01  6.417310333E+01
2.686905681E+01  6.383671951E+01
2.688945078E+01  6.386795425E+01
2.690984475E+01  6.403691101E+01
2.693023872E+01  6.407722473E+01
2.695063269E+01  6.397735214E+01
2.697102666E+01  6.401007080E+01
2.699142063E+01  6.397774887E+01
2.701181461E+01  6.403817749E+01
2.703220858E+01  6.431516266E+01
2.705260255E+01  6.441279602E+01
2.707299652E+01  6.457725525E+01
2.709339049E+01  6.468787384E+01
2.711378446E+01  6.491276550E+01
2.713417843E+01  6.466944885E+01
2.715457240E+01  6.477562714E+01
2.717496637E+01  6.483690643E+01
2.719536034E+01  6.524794006E+01
2.721575432E+01  6.525917816E+01
2.723614829E+01  6.540402985E+01
2.725654226E+01  6.574745941E+01
2.727693623E+01  6.610685730E+01
2.729733020E+01  6.647850037E+01
2.731772417E+01  6.732195282E+01
2.733811814E+01  6.835419464E+01
2.735851211E+01  6.986363983E+01
2.737890608E+01  7.141851044E+01
2.739930005E+01  7.482205963E+01
2.741969403E+01  9.147137451E+01
2.744008800E+01  1.719210815E+02
2.746048197E+01  3.570868835E+02
2.748087594E+01  5.858242188E+02
2.750126991E+01  6.220101929E+02
2.752166388E+01  4.205900879E+02
2.754205785E+01  1.980988617E+02
2.756245182E+01  9.768826294E+01
2.758284579E+01  7.630455780E+01
2.760323976E+01  7.237942505E+01
2.762363374E+01  7.026570892E+01
2.764402771E+01  6.899268341E+01
2.766442168E+01  6.789906311E+01
2.768481565E+01  6.734456635E+01
2.770520962E+01  6.675040436E+01
2.772560359E+01  6.643754578E+01
2.774599756E+01  6.639714813E+01
2.776639153E+01  6.632072449E+01
2.778678550E+01  6.608479309E+01
2.780717947E+01  6.548278809E+01
2.782757345E+01  6.521463013E+01
2.784796742E+01  6.520149994E+01
2.786836139E+01  6.510995483E+01
2.788875536E+01  6.480137634E+01
2.790914933E+01  6.494728851E+01
2.792954330E+01  6.494444275E+01
2.794993727E+01  6.495562744E+01
2.797033124E+01  6.496344757E+01
2.799072521E+01  6.489697266E+01
2.801111918E+01  6.518155670E+01
2.803151316E+01  6.514179993E+01
2.805190713E+01  6.489969635E+01
2.807230110E+01  6.492365265E+01
2.809269507E+01  6.481777191E+01
2.811308904E+01  6.478553772E+01
2.813348301E+01  6.449858093E+01
2.815387698E+01  6.474449921E+01
2.817427095E+01  6.515784454E+01
2.819466492E+01  6.523006439E+01
2.821505890E+01  6.480102539E+01
2.823545287E+01  6.472830200E+01
2.825584684E+01  6.505525970E+01
2.827624081E+01  6.563889313E+01
2.829663478E+01  6.579371643E+01
2.831702875E+01  6.627076721E+01
2.833742272E+01  6.640366364E+01
2.835781669E+01  6.691020966E+01
2.837821066E+01  6.773634338E+01
2.839860463E+01  6.923618317E+01
2.841899861E+01  7.143093109E+01
2.843939258E+01  7.750569153E+01
2.845978655E+01  1.053605347E+02
2.848018052E+01  2.823916931E+02
2.850057449E+01  5.789549561E+02
2.852096846E+01  7.439387817E+02
2.854136243E+01  6.392330322E+02
2.856175640E+01  3.516613159E+02
2.858215037E+01  1.418410187E+02
2.860254434E+01  8.667199707E+01
2.862293832E+01  7.481474304E+01
2.864333229E+01  7.193946838E+01
2.866372626E+01  7.043701172E+01
2.868412023E+01  6.988165283E+01
2.870451420E+01  6.947828674E+01
2.872490817E+01  6.955451202E+01
2.874530214E+01  6.967888641E+01
2.876569611E+01  7.139407349E+01
2.878609008E+01  7.834918213E+01
2.880648405E+01  1.101318893E+02
2.882687803E+01  1.904609070E+02
2.884727200E+01  2.958508606E+02
2.886766597E+01  3.119296265E+02
2.888805994E+01  2.353950043E+02
2.890845391E+01  1.303352814E+02
2.892884788E+01  8.203302765E+01
2.894924185E+01  7.151706696E+01
2.896963582E+01  6.843117523E+01
2.899002979E+01  6.734672546E+01
2.901042376E+01  6.656155396E+01
2.903081774E+01  6.607423401E+01
2.905121171E+01  6.613297272E+01
2.907160568E+01  6.607257843E+01
2.909199965E+01  6.588703918E+01
2.911239362E+01  6.527066803E+01
2.913278759E+01  6.536865997E+01
2.915318156E+01  6.517016602E+01
2.917357553E+01  6.512376404E+01
2.919396950E+01  6.515402222E+01
2.921436347E+01  6.483213806E+01
2.923475745E+01  6.488650513E+01
2.925515142E+01  6.509954071E+01
2.927554539E+01  6.531691742E+01
2.929593936E+01  6.499260712E+01
2.931633333E+01  6.471326447E+01
2.933672730E+01  6.430705261E+01
2.935712127E+01  6.468706512E+01
2.937751524E+01  6.566212463E+01
2.939790921E+01  6.522373199E+01
2.941830318E+01  6.470935059E+01
2.943869716E+01  6.424411774E+01
2.945909113E+01  6.404890442E+01
2.947948510E+01  6.359763336E+01
2.949987907E+01  6.334398270E+01
2.952027304E+01  6.293584442E+01
2.954066701E+01  6.350142288E+01
2.956106098E+01  6.459065247E+01
2.958145495E+01  6.484155273E+01
2.960184892E+01  6.394751740E+01
2.962224289E+01  6.396820068E+01
2.964263687E+01  6.404483795E+01
2.966303084E+01  6.422633362E+01
2.968342481E+01  6.443595123E+01
2.970381878E+01  6.486180878E+01
2.972421275E+01  6.554788971E+01
2.974460672E+01  6.541241455E+01
2.976500069E+01  6.549449158E+01
2.978539466E+01  6.483542633E+01
2.980578863E+01  6.373768234E+01
2.982618261E+01  6.297872543E+01
2.984657658E+01  6.296422195E+01
2.986697055E+01  6.372064590E+01
2.988736452E+01  6.388112640E+01
2.990775849E+01  6.456480408E+01
2.992815246E+01  6.584767914E+01
2.994854643E+01  6.608136749E+01
2.996894040E+01  6.589797211E+01
2.998933437E+01  6.515688324E+01
3.000972834E+01  6.491805267E+01
3.003012232E+01  6.544873047E+01
3.005051629E+01  6.646237946E+01
3.007091026E+01  6.721077728E+01
3.009130423E+01  6.962472534E+01
3.011169820E+01  7.873509216E+01
3.013209217E+01  1.114481354E+02
3.015248614E+01  1.439034729E+02
3.017288011E+01  1.650763092E+02
3.019327408E+01  1.399351349E+02
3.021366805E+01  1.068033066E+02
3.023406203E+01  8.336239624E+01
3.025445600E+01  7.127036285E+01
3.027484997E+01  7.039693451E+01
3.029524394E+01  6.982924652E+01
3.031563791E+01  6.931218719E+01
3.033603188E+01  6.801371765E+01
3.035642585E+01  6.748206329E+01
3.037681982E+01  6.806816864E+01
3.039721379E+01  6.862237549E+01
3.041760776E+01  6.942789459E+01
3.043800174E+01  7.059548950E+01
3.045839571E+01  7.157730865E+01
3.047878968E+01  6.971896362E+01
3.049918365E+01  6.788400269E+01
3.051957762E+01  6.670245361E+01
3.053997159E+01  6.797966766E+01
3.056036556E+01  6.916627502E+01
3.058075953E+01  6.754827118E+01
3.060115350E+01  6.649720001E+01
3.062154747E+01  6.898944855E+01
3.064194145E+01  7.070396423E+01
3.066233542E+01  7.090206909E+01
3.068272939E+01  7.010803986E+01
3.070312336E+01  6.721431732E+01
3.072351733E+01  7.168265533E+01
3.074391130E+01  7.755715942E+01
3.076430527E+01  7.949602509E+01
3.078469924E+01  7.755186462E+01
3.080509321E+01  7.168440247E+01
3.082548718E+01  6.000909424E+01
