\\psf\Home\Programming\Dioptas\Dioptas_main\ExampleData\LaB6_p49_001.tif: 2-thet
2-Theta Angle (Degrees)

       1455
 1.0486433E-02  2.7862846E+01
 3.1459302E-02  2.8738375E+01
 5.2432168E-02  3.0297205E+01
 7.3405035E-02  2.9536245E+01
 9.4377905E-02  2.9158455E+01
 1.9095797E+01  3.9640204E+02
 1.9116768E+01  3.3559955E+02
 1.9137741E+01  2.3882057E+02
 1.9158714E+01  1.8965805E+02
 1.9179688E+01  1.7575114E+02
 1.9200661E+01  1.6768631E+02
 1.9221632E+01  1.6252946E+02
 1.9242605E+01  1.5861049E+02
 1.9263578E+01  1.5565144E+02
 1.9284552E+01  1.5348082E+02
 1.9305525E+01  1.5200546E+02
 1.9326498E+01  1.5071599E+02
 1.9347469E+01  1.4983572E+02
 1.9368443E+01  1.4925722E+02
 1.9389416E+01  1.4903426E+02
 1.9410389E+01  1.4945267E+02
 1.9431362E+01  1.4981371E+02
 1.9452333E+01  1.5040169E+02
 2.6121706E+01  0.0000000E+00
 2.6142679E+01  0.0000000E+00
 2.6834784E+01  0.0000000E+00
 2.6855757E+01  0.0000000E+00
 2.6876730E+01  0.0000000E+00
 2.7380077E+01  0.0000000E+00
 2.7401051E+01  0.0000000E+00
 2.7422024E+01  0.0000000E+00
 2.7442997E+01  0.0000000E+00
 2.7463970E+01  0.0000000E+00
 2.7484943E+01  0.0000000E+00
 2.7505915E+01  0.0000000E+00
 2.7526888E+01  0.0000000E+00
 2.7547861E+01  0.0000000E+00
 2.7568834E+01  0.0000000E+00
 2.7589808E+01  0.0000000E+00
 2.7610779E+01  0.0000000E+00
 2.7631752E+01  0.0000000E+00
 2.7652725E+01  0.0000000E+00
 2.7673698E+01  0.0000000E+00
 2.7694672E+01  0.0000000E+00
 2.7715645E+01  0.0000000E+00
 2.7736616E+01  0.0000000E+00
 2.7757589E+01  0.0000000E+00
 2.7778563E+01  0.0000000E+00
 2.7799536E+01  0.0000000E+00
 2.7820509E+01  0.0000000E+00
 2.7841482E+01  0.0000000E+00
 2.7862453E+01  0.0000000E+00
 2.7883427E+01  0.0000000E+00
 2.7904400E+01  0.0000000E+00
 2.7925373E+01  0.0000000E+00
 2.7946346E+01  0.0000000E+00
 2.7967318E+01  0.0000000E+00
 2.7988291E+01  0.0000000E+00
 2.8009264E+01  0.0000000E+00
 2.8030237E+01  0.0000000E+00
 2.8051210E+01  0.0000000E+00
 2.8072184E+01  0.0000000E+00
 2.8093155E+01  0.0000000E+00
 2.8114128E+01  0.0000000E+00
 2.8135101E+01  0.0000000E+00
 2.8156075E+01  0.0000000E+00
 2.8177048E+01  0.0000000E+00
 2.8198021E+01  0.0000000E+00
 2.8218992E+01  0.0000000E+00
 2.8239965E+01  0.0000000E+00
 2.8260939E+01  0.0000000E+00
 2.8281912E+01  0.0000000E+00
 2.8302885E+01  0.0000000E+00
 2.8323856E+01  0.0000000E+00
 2.8344830E+01  0.0000000E+00