# == pyFAI calibration ==
# SplineFile: None
# PixelSize: 2.000e-04, 2.000e-04 m
# PONI: 6.103e-02, 2.967e-01 m
# Distance Sample to Detector: 0.303704713223 m
# Rotations: 0.007391 0.001688 0.000000 rad
# 
# == Fit2d calibration ==
# Distance Sample-beamCenter: 303.713 mm
# Center: x=1472.100, y=307.723 pix
# Tilt: 0.434 deg  TiltPlanRot: 167.137 deg
# 
# Wavelength: 3.20179398976e-11
# Polarization factor: None
# Normalization factor: None
# --> ExampleData/spectra/FoG_D3_001.xy
#       2th_deg             I  
  1.589844e-02    2.783654e+01
  4.769531e-02    1.095138e+02
  7.949219e-02    2.033009e+02
  1.112891e-01    2.816584e+02
  1.430859e-01    3.121634e+02
  1.748828e-01    3.298415e+02
  2.066797e-01    3.351241e+02
  2.384766e-01    3.075522e+02
  2.702734e-01    3.162048e+02
  3.020703e-01    3.040698e+02
  3.338672e-01    3.115300e+02
  3.656641e-01    3.188954e+02
  3.974609e-01    3.365235e+02
  4.292578e-01    3.346874e+02
  4.610547e-01    3.205755e+02
  4.928516e-01    3.373589e+02
  5.246484e-01    3.360493e+02
  5.564453e-01    3.536418e+02
  5.882422e-01    3.613312e+02
  6.200391e-01    3.627414e+02
  6.518359e-01    3.705992e+02
  6.836328e-01    3.697465e+02
  7.154297e-01    3.457319e+02
  7.472266e-01    3.373016e+02
  7.790234e-01    3.422044e+02
  8.108203e-01    3.292883e+02
  8.426172e-01    3.225254e+02
  8.744141e-01    3.201987e+02
  9.062109e-01    3.189372e+02
  9.380078e-01    3.134819e+02
  9.698047e-01    3.329312e+02
  1.001602e+00    3.325389e+02
  1.033398e+00    3.361237e+02
  1.065195e+00    3.300811e+02
  1.096992e+00    3.270955e+02
  1.128789e+00    3.360401e+02
  1.160586e+00    3.200195e+02
  1.192383e+00    3.319698e+02
  1.224180e+00    3.540084e+02
  1.255977e+00    3.653270e+02
  1.287773e+00    3.627267e+02
  1.319570e+00    3.625477e+02
  1.351367e+00    3.702398e+02
  1.383164e+00    3.609226e+02
  1.414961e+00    3.398103e+02
  1.446758e+00    3.468229e+02
  1.478555e+00    3.527237e+02
  1.510352e+00    3.436700e+02
  1.542148e+00    3.374215e+02
  1.573945e+00    3.373354e+02
  1.605742e+00    3.450180e+02
  1.637539e+00    3.457239e+02
  1.669336e+00    3.412570e+02
  1.701133e+00    3.460424e+02
  1.732930e+00    3.308347e+02
  1.764727e+00    3.317201e+02
  1.796523e+00    3.366393e+02
  1.828320e+00    3.443940e+02
  1.860117e+00    3.533615e+02
  1.891914e+00    3.552326e+02
  1.923711e+00    3.559317e+02
  1.955508e+00    3.605006e+02
  1.987305e+00    3.768749e+02
  2.019102e+00    3.786122e+02
  2.050898e+00    3.941110e+02
  2.082695e+00    4.116088e+02
  2.114492e+00    4.317215e+02
  2.146289e+00    4.662796e+02
  2.178086e+00    4.938214e+02
  2.209883e+00    5.294568e+02
  2.241680e+00    5.759714e+02
  2.273477e+00    6.112760e+02
  2.305273e+00    6.396714e+02
  2.337070e+00    6.692068e+02
  2.368867e+00    6.932806e+02
  2.400664e+00    7.094579e+02
  2.432461e+00    7.250598e+02
  2.464258e+00    7.337220e+02
  2.496055e+00    7.349402e+02
  2.527852e+00    7.477127e+02
  2.559648e+00    7.662581e+02
  2.591445e+00    7.792147e+02
  2.623242e+00    8.004547e+02
  2.655039e+00    8.071199e+02
  2.686836e+00    8.122974e+02
  2.718633e+00    8.404402e+02
  2.750430e+00    8.679531e+02
  2.782227e+00    8.918372e+02
  2.814023e+00    9.094810e+02
  2.845820e+00    9.339315e+02
  2.877617e+00    9.642244e+02
  2.909414e+00    9.939998e+02
  2.941211e+00    1.023952e+03
  2.973008e+00    1.046896e+03
  3.004805e+00    1.073334e+03
  3.036602e+00    1.106387e+03
  3.068398e+00    1.130356e+03
  3.100195e+00    1.152389e+03
  3.131992e+00    1.181613e+03
  3.163789e+00    1.212703e+03
  3.195586e+00    1.222792e+03
  3.227383e+00    1.234693e+03
  3.259180e+00    1.263594e+03
  3.290977e+00    1.269543e+03
  3.322773e+00    1.282891e+03
  3.354570e+00    1.296315e+03
  3.386367e+00    1.303582e+03
  3.418164e+00    1.317663e+03
  3.449961e+00    1.328685e+03
  3.481758e+00    1.347074e+03
  3.513555e+00    1.366699e+03
  3.545352e+00    1.384361e+03
  3.577148e+00    1.395662e+03
  3.608945e+00    1.398847e+03
  3.640742e+00    1.421484e+03
  3.672539e+00    1.435180e+03
  3.704336e+00    1.453775e+03
  3.736133e+00    1.468419e+03
  3.767930e+00    1.474614e+03
  3.799727e+00    1.484593e+03
  3.831523e+00    1.493021e+03
  3.863320e+00    1.495411e+03
  3.895117e+00    1.507324e+03
  3.926914e+00    1.520800e+03
  3.958711e+00    1.529580e+03
  3.990508e+00    1.534582e+03
  4.022305e+00    1.547911e+03
  4.054102e+00    1.565999e+03
  4.085898e+00    1.578089e+03
  4.117695e+00    1.589788e+03
  4.149492e+00    1.593075e+03
  4.181289e+00    1.602700e+03
  4.213086e+00    1.621015e+03
  4.244883e+00    1.633318e+03
  4.276680e+00    1.655388e+03
  4.308477e+00    1.667021e+03
  4.340273e+00    1.664348e+03
  4.372070e+00    1.657753e+03
  4.403867e+00    1.671425e+03
  4.435664e+00    1.673683e+03
  4.467461e+00    1.691271e+03
  4.499258e+00    1.725188e+03
  4.531055e+00    1.746499e+03
  4.562852e+00    1.768112e+03
  4.594648e+00    1.801424e+03
  4.626445e+00    1.833799e+03
  4.658242e+00    1.855755e+03
  4.690039e+00    1.898120e+03
  4.721836e+00    1.937275e+03
  4.753633e+00    1.964564e+03
  4.785430e+00    2.010219e+03
  4.817227e+00    2.044011e+03
  4.849023e+00    2.060825e+03
  4.880820e+00    2.104863e+03
  4.912617e+00    2.130474e+03
  4.944414e+00    2.150947e+03
  4.976211e+00    2.152903e+03
  5.008008e+00    2.170222e+03
  5.039805e+00    2.141345e+03
  5.071602e+00    2.082267e+03
  5.103398e+00    2.043480e+03
  5.135195e+00    2.007777e+03
  5.166992e+00    1.990330e+03
  5.198789e+00    1.976548e+03
  5.230586e+00    1.959223e+03
  5.262383e+00    1.946131e+03
  5.294180e+00    1.928100e+03
  5.325977e+00    1.911055e+03
  5.357773e+00    1.902043e+03
  5.389570e+00    1.889393e+03
  5.421367e+00    1.871896e+03
  5.453164e+00    1.860749e+03
  5.484961e+00    1.858863e+03
  5.516758e+00    1.858085e+03
  5.548555e+00    1.841895e+03
  5.580352e+00    1.841164e+03
  5.612148e+00    1.834058e+03
  5.643945e+00    1.827774e+03
  5.675742e+00    1.819865e+03
  5.707539e+00    1.815591e+03
  5.739336e+00    1.815964e+03
  5.771133e+00    1.814093e+03
  5.802930e+00    1.802835e+03
  5.834727e+00    1.801510e+03
  5.866523e+00    1.804427e+03
  5.898320e+00    1.803480e+03
  5.930117e+00    1.787737e+03
  5.961914e+00    1.782824e+03
  5.993711e+00    1.779898e+03
  6.025508e+00    1.777789e+03
  6.057305e+00    1.776635e+03
  6.089102e+00    1.769513e+03
  6.120898e+00    1.767901e+03
  6.152695e+00    1.766183e+03
  6.184492e+00    1.769457e+03
  6.216289e+00    1.768648e+03
  6.248086e+00    1.764583e+03
  6.279883e+00    1.763220e+03
  6.311680e+00    1.761765e+03
  6.343477e+00    1.767837e+03
  6.375273e+00    1.761876e+03
  6.407070e+00    1.758291e+03
  6.438867e+00    1.752023e+03
  6.470664e+00    1.758592e+03
  6.502461e+00    1.747559e+03
  6.534258e+00    1.734146e+03
  6.566055e+00    1.743463e+03
  6.597852e+00    1.731420e+03
  6.629648e+00    1.726278e+03
  6.661445e+00    1.740076e+03
  6.693242e+00    1.746797e+03
  6.725039e+00    1.748721e+03
  6.756836e+00    1.748738e+03
  6.788633e+00    1.740984e+03
  6.820430e+00    1.733254e+03
  6.852227e+00    1.735209e+03
  6.884023e+00    1.742391e+03
  6.915820e+00    1.736208e+03
  6.947617e+00    1.723919e+03
  6.979414e+00    1.726855e+03
  7.011211e+00    1.735583e+03
  7.043008e+00    1.741562e+03
  7.074805e+00    1.740370e+03
  7.106602e+00    1.736280e+03
  7.138398e+00    1.737075e+03
  7.170195e+00    1.749744e+03
  7.201992e+00    1.743920e+03
  7.233789e+00    1.746604e+03
  7.265586e+00    1.755449e+03
  7.297383e+00    1.761263e+03
  7.329180e+00    1.753342e+03
  7.360977e+00    1.766447e+03
  7.392773e+00    1.772570e+03
  7.424570e+00    1.768940e+03
  7.456367e+00    1.782651e+03
  7.488164e+00    1.793737e+03
  7.519961e+00    1.784523e+03
  7.551758e+00    1.785200e+03
  7.583555e+00    1.791498e+03
  7.615352e+00    1.805264e+03
  7.647148e+00    1.804799e+03
  7.678945e+00    1.807963e+03
  7.710742e+00    1.807759e+03
  7.742539e+00    1.823484e+03
  7.774336e+00    1.832463e+03
  7.806133e+00    1.846378e+03
  7.837930e+00    1.855686e+03
  7.869727e+00    1.863534e+03
  7.901523e+00    1.865880e+03
  7.933320e+00    1.869635e+03
  7.965117e+00    1.869353e+03
  7.996914e+00    1.882209e+03
  8.028711e+00    1.876427e+03
  8.060508e+00    1.882609e+03
  8.092305e+00    1.898365e+03
  8.124102e+00    1.895000e+03
  8.155898e+00    1.890354e+03
  8.187695e+00    1.887963e+03
  8.219492e+00    1.900624e+03
  8.251289e+00    1.903298e+03
  8.283086e+00    1.887630e+03
  8.314883e+00    1.896348e+03
  8.346680e+00    1.898163e+03
  8.378477e+00    1.883228e+03
  8.410273e+00    1.873485e+03
  8.442070e+00    1.877433e+03
  8.473867e+00    1.881615e+03
  8.505664e+00    1.871235e+03
  8.537461e+00    1.872225e+03
  8.569258e+00    1.857898e+03
  8.601055e+00    1.849874e+03
  8.632852e+00    1.845940e+03
  8.664648e+00    1.853570e+03
  8.696445e+00    1.848596e+03
  8.728242e+00    1.844108e+03
  8.760039e+00    1.856406e+03
  8.791836e+00    1.854254e+03
  8.823633e+00    1.842910e+03
  8.855430e+00    1.857857e+03
  8.887227e+00    1.865360e+03
  8.919023e+00    1.870749e+03
  8.950820e+00    1.841643e+03
  8.982617e+00    1.825259e+03
  9.014414e+00    1.811492e+03
  9.046211e+00    1.822854e+03
  9.078008e+00    1.825633e+03
  9.109805e+00    1.829213e+03
  9.141602e+00    1.819659e+03
  9.173398e+00    1.835620e+03
  9.205195e+00    1.849149e+03
  9.236992e+00    1.845523e+03
  9.268789e+00    1.850679e+03
  9.300586e+00    1.855420e+03
  9.332383e+00    1.865573e+03
  9.364180e+00    1.867503e+03
  9.395977e+00    1.862335e+03
  9.427773e+00    1.874327e+03
  9.459570e+00    1.883161e+03
  9.491367e+00    1.894166e+03
  9.523164e+00    1.905948e+03
  9.554961e+00    1.910792e+03
  9.586758e+00    1.915255e+03
  9.618555e+00    1.921584e+03
  9.650352e+00    1.945236e+03
  9.682148e+00    1.957135e+03
  9.713945e+00    1.968074e+03
  9.745742e+00    1.969641e+03
  9.777539e+00    1.976783e+03
  9.809336e+00    1.977109e+03
  9.841133e+00    1.987742e+03
  9.872930e+00    1.993844e+03
  9.904727e+00    1.999467e+03
  9.936523e+00    2.011625e+03
  9.968320e+00    2.017275e+03
  1.000012e+01    2.016822e+03
  1.003191e+01    2.012184e+03
  1.006371e+01    2.009421e+03
  1.009551e+01    2.027617e+03
  1.012730e+01    2.032560e+03
  1.015910e+01    2.036917e+03
  1.019090e+01    2.038177e+03
  1.022270e+01    2.049924e+03
  1.025449e+01    2.049669e+03
  1.028629e+01    2.042780e+03
  1.031809e+01    2.055395e+03
  1.034988e+01    2.050885e+03
  1.038168e+01    2.060785e+03
  1.041348e+01    2.042083e+03
  1.044527e+01    2.037786e+03
  1.047707e+01    2.038267e+03
  1.050887e+01    2.027386e+03
  1.054066e+01    2.026172e+03
  1.057246e+01    2.025537e+03
  1.060426e+01    2.027401e+03
  1.063605e+01    2.016616e+03
  1.066785e+01    2.004411e+03
  1.069965e+01    1.998371e+03
  1.073145e+01    2.003928e+03
  1.076324e+01    2.003517e+03
  1.079504e+01    1.983587e+03
  1.082684e+01    1.984659e+03
  1.085863e+01    1.980452e+03
  1.089043e+01    1.974269e+03
  1.092223e+01    1.962551e+03
  1.095402e+01    1.949566e+03
  1.098582e+01    1.956660e+03
  1.101762e+01    1.952540e+03
  1.104941e+01    1.941417e+03
  1.108121e+01    1.942117e+03
  1.111301e+01    1.944194e+03
  1.114480e+01    1.935728e+03
  1.117660e+01    1.933008e+03
  1.120840e+01    1.939099e+03
  1.124020e+01    1.932036e+03
  1.127199e+01    1.923866e+03
  1.130379e+01    1.921779e+03
  1.133559e+01    1.915243e+03
  1.136738e+01    1.912061e+03
  1.139918e+01    1.897256e+03
  1.143098e+01    1.880657e+03
  1.146277e+01    1.883494e+03
  1.149457e+01    1.891675e+03
  1.152637e+01    1.881602e+03
  1.155816e+01    1.876219e+03
  1.158996e+01    1.875357e+03
  1.162176e+01    1.870611e+03
  1.165355e+01    1.864327e+03
  1.168535e+01    1.866120e+03
  1.171715e+01    1.854948e+03
  1.174895e+01    1.842896e+03
  1.178074e+01    1.847140e+03
  1.181254e+01    1.837293e+03
  1.184434e+01    1.835791e+03
  1.187613e+01    1.837068e+03
  1.190793e+01    1.840038e+03
  1.193973e+01    1.839232e+03
  1.197152e+01    1.829281e+03
  1.200332e+01    1.825755e+03
  1.203512e+01    1.813677e+03
  1.206691e+01    1.805843e+03
  1.209871e+01    1.801444e+03
  1.213051e+01    1.795112e+03
  1.216230e+01    1.793158e+03
  1.219410e+01    1.805004e+03
  1.222590e+01    1.806416e+03
  1.225770e+01    1.797937e+03
  1.228949e+01    1.791331e+03
  1.232129e+01    1.788561e+03
  1.235309e+01    1.790132e+03
  1.238488e+01    1.788468e+03
  1.241668e+01    1.794495e+03
  1.244848e+01    1.780132e+03
  1.248027e+01    1.779398e+03
  1.251207e+01    1.797918e+03
  1.254387e+01    1.805787e+03
  1.257566e+01    1.801468e+03
  1.260746e+01    1.792185e+03
  1.263926e+01    1.775116e+03
  1.267105e+01    1.772874e+03
  1.270285e+01    1.766409e+03
  1.273465e+01    1.771382e+03
  1.276645e+01    1.773034e+03
  1.279824e+01    1.769860e+03
  1.283004e+01    1.770804e+03
  1.286184e+01    1.756597e+03
  1.289363e+01    1.758108e+03
  1.292543e+01    1.759687e+03
  1.295723e+01    1.747078e+03
  1.298902e+01    1.745428e+03
  1.302082e+01    1.757870e+03
  1.305262e+01    1.767817e+03
  1.308441e+01    1.759956e+03
  1.311621e+01    1.755389e+03
  1.314801e+01    1.740807e+03
  1.317980e+01    1.737442e+03
  1.321160e+01    1.742738e+03
  1.324340e+01    1.745901e+03
  1.327520e+01    1.739560e+03
  1.330699e+01    1.739681e+03
  1.333879e+01    1.738975e+03
  1.337059e+01    1.738728e+03
  1.340238e+01    1.738423e+03
  1.343418e+01    1.731561e+03
  1.346598e+01    1.731461e+03
  1.349777e+01    1.726254e+03
  1.352957e+01    1.732165e+03
  1.356137e+01    1.733709e+03
  1.359316e+01    1.729487e+03
  1.362496e+01    1.740512e+03
  1.365676e+01    1.730447e+03
  1.368855e+01    1.746861e+03
  1.372035e+01    1.739447e+03
  1.375215e+01    1.732249e+03
  1.378395e+01    1.724014e+03
  1.381574e+01    1.722707e+03
  1.384754e+01    1.724171e+03
  1.387934e+01    1.727097e+03
  1.391113e+01    1.712454e+03
  1.394293e+01    1.724748e+03
  1.397473e+01    1.729325e+03
  1.400652e+01    1.723265e+03
  1.403832e+01    1.724320e+03
  1.407012e+01    1.721827e+03
  1.410191e+01    1.705101e+03
  1.413371e+01    1.709523e+03
  1.416551e+01    1.720160e+03
  1.419730e+01    1.720700e+03
  1.422910e+01    1.716317e+03
  1.426090e+01    1.717588e+03
  1.429270e+01    1.711179e+03
  1.432449e+01    1.727235e+03
  1.435629e+01    1.727337e+03
  1.438809e+01    1.728917e+03
  1.441988e+01    1.722569e+03
  1.445168e+01    1.703817e+03
  1.448348e+01    1.698958e+03
  1.451527e+01    1.716136e+03
  1.454707e+01    1.707297e+03
  1.457887e+01    1.718070e+03
  1.461066e+01    1.720128e+03
  1.464246e+01    1.711372e+03
  1.467426e+01    1.705055e+03
  1.470605e+01    1.691806e+03
  1.473785e+01    1.691258e+03
  1.476965e+01    1.694296e+03
  1.480145e+01    1.704776e+03
  1.483324e+01    1.695218e+03
  1.486504e+01    1.666598e+03
  1.489684e+01    1.675356e+03
  1.492863e+01    1.666778e+03
  1.496043e+01    1.660682e+03
  1.499223e+01    1.672172e+03
  1.502402e+01    1.667285e+03
  1.505582e+01    1.663557e+03
  1.508762e+01    1.661102e+03
  1.511941e+01    1.651938e+03
  1.515121e+01    1.639672e+03
  1.518301e+01    1.635459e+03
  1.521480e+01    1.625178e+03
  1.524660e+01    1.603471e+03
  1.527840e+01    1.596388e+03
  1.531020e+01    1.588583e+03
  1.534199e+01    1.577514e+03
  1.537379e+01    1.562648e+03
  1.540559e+01    1.562170e+03
  1.543738e+01    1.557563e+03
  1.546918e+01    1.539094e+03
  1.550098e+01    1.528930e+03
  1.553277e+01    1.523965e+03
  1.556457e+01    1.529943e+03
  1.559637e+01    1.508528e+03
  1.562816e+01    1.503915e+03
  1.565996e+01    1.513803e+03
  1.569176e+01    1.505751e+03
  1.572355e+01    1.502470e+03
  1.575535e+01    1.495122e+03
  1.578715e+01    1.487278e+03
  1.581895e+01    1.485081e+03
  1.585074e+01    1.475166e+03
  1.588254e+01    1.465609e+03
  1.591434e+01    1.461308e+03
  1.594613e+01    1.459321e+03
  1.597793e+01    1.434857e+03
  1.600973e+01    1.419917e+03
  1.604152e+01    1.412780e+03
  1.607332e+01    1.401850e+03
  1.610512e+01    1.389141e+03
  1.613691e+01    1.380838e+03
  1.616871e+01    1.376040e+03
  1.620051e+01    1.369632e+03
  1.623230e+01    1.364420e+03
  1.626410e+01    1.361641e+03
  1.629590e+01    1.363085e+03
  1.632770e+01    1.353595e+03
  1.635949e+01    1.329791e+03
  1.639129e+01    1.325965e+03
  1.642309e+01    1.336680e+03
  1.645488e+01    1.318102e+03
  1.648668e+01    1.320414e+03
  1.651848e+01    1.320670e+03
  1.655027e+01    1.316455e+03
  1.658207e+01    1.306849e+03
  1.661387e+01    1.305950e+03
  1.664566e+01    1.301837e+03
  1.667746e+01    1.290591e+03
  1.670926e+01    1.287553e+03
  1.674105e+01    1.272303e+03
  1.677285e+01    1.238049e+03
  1.680465e+01    1.240027e+03
  1.683645e+01    1.242464e+03
  1.686824e+01    1.229326e+03
  1.690004e+01    1.216097e+03
  1.693184e+01    1.209161e+03
  1.696363e+01    1.215454e+03
  1.699543e+01    1.223226e+03
  1.702723e+01    1.206942e+03
  1.705902e+01    1.184629e+03
  1.709082e+01    1.183169e+03
  1.712262e+01    1.183968e+03
  1.715441e+01    1.168611e+03
  1.718621e+01    1.155671e+03
  1.721801e+01    1.153076e+03
  1.724980e+01    1.142596e+03
  1.728160e+01    1.133013e+03
  1.731340e+01    1.139177e+03
  1.734520e+01    1.133767e+03
  1.737699e+01    1.123116e+03
  1.740879e+01    1.128763e+03
  1.744059e+01    1.114906e+03
  1.747238e+01    1.112593e+03
  1.750418e+01    1.100420e+03
  1.753598e+01    1.092258e+03
  1.756777e+01    1.080347e+03
  1.759957e+01    1.074892e+03
  1.763137e+01    1.052857e+03
  1.766316e+01    1.047504e+03
  1.769496e+01    1.040089e+03
  1.772676e+01    1.037968e+03
  1.775855e+01    1.033282e+03
  1.779035e+01    1.032239e+03
  1.782215e+01    1.016419e+03
  1.785395e+01    1.012013e+03
  1.788574e+01    1.008040e+03
  1.791754e+01    9.954012e+02
  1.794934e+01    9.888437e+02
  1.798113e+01    9.802795e+02
  1.801293e+01    9.757906e+02
  1.804473e+01    9.832683e+02
  1.807652e+01    9.744631e+02
  1.810832e+01    9.698241e+02
  1.814012e+01    9.670648e+02
  1.817191e+01    9.474576e+02
  1.820371e+01    9.558972e+02
  1.823551e+01    9.630371e+02
  1.826730e+01    9.586901e+02
  1.829910e+01    9.636565e+02
  1.833090e+01    9.680530e+02
  1.836270e+01    9.600904e+02
  1.839449e+01    9.596682e+02
  1.842629e+01    9.449046e+02
  1.845809e+01    9.396594e+02
  1.848988e+01    9.495325e+02
  1.852168e+01    9.473841e+02
  1.855348e+01    9.536556e+02
  1.858527e+01    9.383257e+02
  1.861707e+01    9.329375e+02
  1.864887e+01    9.351396e+02
  1.868066e+01    9.341401e+02
  1.871246e+01    9.257520e+02
  1.874426e+01    9.286554e+02
  1.877605e+01    9.401724e+02
  1.880785e+01    9.341171e+02
  1.883965e+01    9.341044e+02
  1.887145e+01    9.359571e+02
  1.890324e+01    9.381083e+02
  1.893504e+01    9.301729e+02
  1.896684e+01    9.258346e+02
  1.899863e+01    9.258363e+02
  1.903043e+01    9.243101e+02
  1.906223e+01    9.042357e+02
  1.909402e+01    9.146159e+02
  1.912582e+01    9.198157e+02
  1.915762e+01    9.217045e+02
  1.918941e+01    9.104848e+02
  1.922121e+01    9.197628e+02
  1.925301e+01    9.193240e+02
  1.928480e+01    9.004319e+02
  1.931660e+01    8.904620e+02
  1.934840e+01    9.063584e+02
  1.938020e+01    9.087590e+02
  1.941199e+01    8.961273e+02
  1.944379e+01    9.019857e+02
  1.947559e+01    8.991208e+02
  1.950738e+01    9.003167e+02
  1.953918e+01    8.942974e+02
  1.957098e+01    8.973907e+02
  1.960277e+01    8.843256e+02
  1.963457e+01    8.845559e+02
  1.966637e+01    8.996265e+02
  1.969816e+01    8.994901e+02
  1.972996e+01    8.905420e+02
  1.976176e+01    8.905939e+02
  1.979355e+01    8.821235e+02
  1.982535e+01    8.889288e+02
  1.985715e+01    8.880417e+02
  1.988895e+01    8.902755e+02
  1.992074e+01    8.916241e+02
  1.995254e+01    8.820037e+02
  1.998434e+01    8.757913e+02
  2.001613e+01    8.753021e+02
  2.004793e+01    8.752045e+02
  2.007973e+01    8.719269e+02
  2.011152e+01    8.707912e+02
  2.014332e+01    8.736333e+02
  2.017512e+01    8.642715e+02
  2.020691e+01    8.664068e+02
  2.023871e+01    8.650804e+02
  2.027051e+01    8.730546e+02
  2.030230e+01    8.690426e+02
  2.033410e+01    8.553922e+02
  2.036590e+01    8.645991e+02
  2.039770e+01    8.624564e+02
  2.042949e+01    8.483257e+02
  2.046129e+01    8.556233e+02
  2.049309e+01    8.489854e+02
  2.052488e+01    8.563615e+02
  2.055668e+01    8.470160e+02
  2.058848e+01    8.406036e+02
  2.062027e+01    8.500496e+02
  2.065207e+01    8.472051e+02
  2.068387e+01    8.326144e+02
  2.071566e+01    8.441262e+02
  2.074746e+01    8.288128e+02
  2.077926e+01    8.357694e+02
  2.081105e+01    8.264443e+02
  2.084285e+01    8.797410e+02
  2.087465e+01    9.080255e+02
  2.090645e+01    9.443915e+02
  2.093824e+01    9.634183e+02
  2.097004e+01    9.816015e+02
  2.100184e+01    9.934182e+02
  2.103363e+01    1.006912e+03
  2.106543e+01    1.042776e+03
  2.109723e+01    1.050555e+03
  2.112902e+01    1.053174e+03
  2.116082e+01    1.087320e+03
  2.119262e+01    1.108386e+03
  2.122441e+01    1.105902e+03
  2.125621e+01    1.133752e+03
  2.128801e+01    1.134335e+03
  2.131980e+01    1.147325e+03
  2.135160e+01    1.160189e+03
  2.138340e+01    1.158559e+03
  2.141520e+01    1.170063e+03
  2.144699e+01    1.155961e+03
  2.147879e+01    1.166406e+03
  2.151059e+01    1.151162e+03
  2.154238e+01    1.134719e+03
  2.157418e+01    1.127784e+03
  2.160598e+01    1.126997e+03
  2.163777e+01    1.127638e+03
  2.166957e+01    1.110696e+03
  2.170137e+01    1.124136e+03
  2.173316e+01    1.105418e+03
  2.176496e+01    1.088826e+03
  2.179676e+01    1.094000e+03
  2.182855e+01    1.107499e+03
  2.186035e+01    1.098193e+03
  2.189215e+01    1.081856e+03
  2.192395e+01    1.065970e+03
  2.195574e+01    1.075586e+03
  2.198754e+01    1.077270e+03
  2.201934e+01    1.085078e+03
  2.205113e+01    1.090472e+03
  2.208293e+01    1.085112e+03
  2.211473e+01    1.069171e+03
  2.214652e+01    1.054005e+03
  2.217832e+01    1.069606e+03
  2.221012e+01    1.056193e+03
  2.224191e+01    1.056616e+03
  2.227371e+01    1.058277e+03
  2.230551e+01    1.057921e+03
  2.233730e+01    1.061446e+03
  2.236910e+01    1.068044e+03
  2.240090e+01    1.040487e+03
  2.243270e+01    1.063536e+03
  2.246449e+01    1.066450e+03
  2.249629e+01    1.067788e+03
  2.252809e+01    1.053635e+03
  2.255988e+01    1.070899e+03
  2.259168e+01    1.042041e+03
  2.262348e+01    1.042707e+03
  2.265527e+01    1.054247e+03
  2.268707e+01    1.038942e+03
  2.271887e+01    1.043677e+03
  2.275066e+01    1.062499e+03
  2.278246e+01    1.050901e+03
  2.281426e+01    1.026068e+03
  2.284605e+01    1.044000e+03
  2.287785e+01    1.027814e+03
  2.290965e+01    1.055846e+03
  2.294145e+01    1.062110e+03
  2.297324e+01    1.063232e+03
  2.300504e+01    1.036380e+03
  2.303684e+01    1.038084e+03
  2.306863e+01    1.050962e+03
  2.310043e+01    1.042186e+03
  2.313223e+01    1.039685e+03
  2.316402e+01    1.049757e+03
  2.319582e+01    1.028841e+03
  2.322762e+01    1.033396e+03
  2.325941e+01    1.049197e+03
  2.329121e+01    1.048440e+03
  2.332301e+01    1.030664e+03
  2.335480e+01    1.001313e+03
  2.338660e+01    1.014493e+03
  2.341840e+01    1.022655e+03
  2.345020e+01    1.024083e+03
  2.348199e+01    1.014162e+03
  2.351379e+01    1.015895e+03
  2.354559e+01    1.014967e+03
  2.357738e+01    1.023555e+03
  2.360918e+01    9.925557e+02
  2.364098e+01    1.029672e+03
  2.367277e+01    1.011265e+03
  2.370457e+01    1.022145e+03
  2.373637e+01    9.948123e+02
  2.376816e+01    1.003235e+03
  2.379996e+01    9.998188e+02
  2.383176e+01    1.012857e+03
  2.386355e+01    1.008047e+03
  2.389535e+01    1.019444e+03
  2.392715e+01    1.011355e+03
  2.395895e+01    1.012598e+03
  2.399074e+01    1.024777e+03
  2.402254e+01    9.994086e+02
  2.405434e+01    1.008103e+03
  2.408613e+01    9.989171e+02
  2.411793e+01    9.902098e+02
  2.414973e+01    1.008348e+03
  2.418152e+01    9.983836e+02
  2.421332e+01    9.939860e+02
  2.424512e+01    1.014768e+03
  2.427691e+01    1.005980e+03
  2.430871e+01    1.000704e+03
  2.434051e+01    1.007666e+03
  2.437230e+01    1.013065e+03
  2.440410e+01    9.989894e+02
  2.443590e+01    9.919724e+02
  2.446770e+01    9.865905e+02
  2.449949e+01    1.006410e+03
  2.453129e+01    9.985139e+02
  2.456309e+01    9.950984e+02
  2.459488e+01    9.913254e+02
  2.462668e+01    9.952681e+02
  2.465848e+01    9.895071e+02
  2.469027e+01    9.963120e+02
  2.472207e+01    9.862048e+02
  2.475387e+01    9.690010e+02
  2.478566e+01    9.757450e+02
  2.481746e+01    9.852858e+02
  2.484926e+01    9.828674e+02
  2.488105e+01    9.732799e+02
  2.491285e+01    9.639625e+02
  2.494465e+01    9.670499e+02
  2.497645e+01    9.980379e+02
  2.500824e+01    9.920479e+02
  2.504004e+01    9.780302e+02
  2.507184e+01    9.818477e+02
  2.510363e+01    9.665303e+02
  2.513543e+01    9.614746e+02
  2.516723e+01    9.793343e+02
  2.519902e+01    9.940481e+02
  2.523082e+01    9.804270e+02
  2.526262e+01    9.824752e+02
  2.529441e+01    9.933340e+02
  2.532621e+01    9.716637e+02
  2.535801e+01    9.643159e+02
  2.538980e+01    9.725233e+02
  2.542160e+01    9.794926e+02
  2.545340e+01    9.726799e+02
  2.548520e+01    9.876579e+02
  2.551699e+01    9.928019e+02
  2.554879e+01    9.784048e+02
  2.558059e+01    9.633307e+02
  2.561238e+01    9.664421e+02
  2.564418e+01    9.792368e+02
  2.567598e+01    9.507254e+02
  2.570777e+01    9.586782e+02
  2.573957e+01    9.572450e+02
  2.577137e+01    9.621425e+02
  2.580316e+01    9.577064e+02
  2.583496e+01    9.773462e+02
  2.586676e+01    9.736149e+02
  2.589855e+01    9.755182e+02
  2.593035e+01    9.739825e+02
  2.596215e+01    9.576415e+02
  2.599395e+01    9.734972e+02
  2.602574e+01    9.508908e+02
  2.605754e+01    9.827204e+02
  2.608934e+01    9.658718e+02
  2.612113e+01    9.459945e+02
  2.615293e+01    9.540461e+02
  2.618473e+01    9.554504e+02
  2.621652e+01    9.572177e+02
  2.624832e+01    9.520886e+02
  2.628012e+01    9.768544e+02
  2.631191e+01    9.649184e+02
  2.634371e+01    9.872205e+02
  2.637551e+01    9.784018e+02
  2.640730e+01    9.697866e+02
  2.643910e+01    9.597155e+02
  2.647090e+01    9.730731e+02
  2.650270e+01    9.487640e+02
  2.653449e+01    9.605753e+02
  2.656629e+01    9.559016e+02
  2.659809e+01    9.552336e+02
  2.662988e+01    9.541165e+02
  2.666168e+01    9.580716e+02
  2.669348e+01    9.577574e+02
  2.672527e+01    9.456075e+02
  2.675707e+01    9.325435e+02
  2.678887e+01    9.413365e+02
  2.682066e+01    9.327093e+02
  2.685246e+01    9.516620e+02
  2.688426e+01    9.383571e+02
  2.691605e+01    9.350350e+02
  2.694785e+01    9.248091e+02
  2.697965e+01    9.416048e+02
  2.701145e+01    9.416263e+02
  2.704324e+01    9.419449e+02
  2.707504e+01    9.496813e+02
  2.710684e+01    9.300334e+02
  2.713863e+01    9.380594e+02
  2.717043e+01    9.244352e+02
  2.720223e+01    9.273778e+02
  2.723402e+01    9.336970e+02
  2.726582e+01    9.491959e+02
  2.729762e+01    9.396919e+02
  2.732941e+01    9.423392e+02
  2.736121e+01    9.296347e+02
  2.739301e+01    9.406616e+02
  2.742480e+01    9.354875e+02
  2.745660e+01    9.605267e+02
  2.748840e+01    9.477783e+02
  2.752020e+01    9.576967e+02
  2.755199e+01    9.218286e+02
  2.758379e+01    9.072963e+02
  2.761559e+01    9.305441e+02
  2.764738e+01    9.444208e+02
  2.767918e+01    9.484200e+02
  2.771098e+01    9.338247e+02
  2.774277e+01    9.386201e+02
  2.777457e+01    9.264374e+02
  2.780637e+01    9.222418e+02
  2.783816e+01    9.301223e+02
  2.786996e+01    9.583794e+02
  2.790176e+01    9.432903e+02
  2.793355e+01    9.431313e+02
  2.796535e+01    9.351109e+02
  2.799715e+01    9.463781e+02
  2.802895e+01    9.377272e+02
  2.806074e+01    9.056894e+02
  2.809254e+01    9.236819e+02
  2.812434e+01    9.278481e+02
  2.815613e+01    9.326636e+02
  2.818793e+01    9.362339e+02
  2.821973e+01    9.323882e+02
  2.825152e+01    9.148441e+02
  2.828332e+01    9.283159e+02
  2.831512e+01    9.208775e+02
  2.834691e+01    9.214617e+02
  2.837871e+01    9.091729e+02
  2.841051e+01    9.140533e+02
  2.844230e+01    9.350214e+02
  2.847410e+01    9.255037e+02
  2.850590e+01    9.117816e+02
  2.853770e+01    9.170311e+02
  2.856949e+01    9.183805e+02
  2.860129e+01    9.127266e+02
  2.863309e+01    9.046544e+02
  2.866488e+01    9.227203e+02
  2.869668e+01    9.138318e+02
  2.872848e+01    9.305432e+02
  2.876027e+01    9.319236e+02
  2.879207e+01    8.993914e+02
  2.882387e+01    8.998221e+02
  2.885566e+01    9.346294e+02
  2.888746e+01    9.395400e+02
  2.891926e+01    9.295502e+02
  2.895105e+01    9.294635e+02
  2.898285e+01    9.287417e+02
  2.901465e+01    9.348281e+02
  2.904645e+01    9.364261e+02
  2.907824e+01    9.363995e+02
  2.911004e+01    9.240182e+02
  2.914184e+01    9.401227e+02
  2.917363e+01    9.240377e+02
  2.920543e+01    9.127212e+02
  2.923723e+01    9.017258e+02
  2.926902e+01    9.320646e+02
  2.930082e+01    9.601276e+02
  2.933262e+01    9.252011e+02
  2.936441e+01    9.211760e+02
  2.939621e+01    9.236875e+02
  2.942801e+01    9.490769e+02
  2.945980e+01    9.196946e+02
  2.949160e+01    9.200186e+02
  2.952340e+01    9.115145e+02
  2.955520e+01    9.328610e+02
  2.958699e+01    9.093574e+02
  2.961879e+01    9.090600e+02
  2.965059e+01    9.279958e+02
  2.968238e+01    9.368233e+02
  2.971418e+01    9.404084e+02
  2.974598e+01    9.534146e+02
  2.977777e+01    9.421123e+02
  2.980957e+01    9.162519e+02
  2.984137e+01    9.237281e+02
  2.987316e+01    8.907531e+02
  2.990496e+01    8.952452e+02
  2.993676e+01    9.059343e+02
  2.996855e+01    8.915552e+02
  3.000035e+01    8.912007e+02
  3.003215e+01    8.994929e+02
  3.006395e+01    9.102133e+02
  3.009574e+01    9.119410e+02
  3.012754e+01    9.279044e+02
  3.015934e+01    9.391481e+02
  3.019113e+01    9.054185e+02
  3.022293e+01    8.977422e+02
  3.025473e+01    9.332287e+02
  3.028652e+01    9.381953e+02
  3.031832e+01    9.454394e+02
  3.035012e+01    9.212537e+02
  3.038191e+01    9.003978e+02
  3.041371e+01    9.205600e+02
  3.044551e+01    9.258334e+02
  3.047730e+01    9.153539e+02
  3.050910e+01    9.221683e+02
  3.054090e+01    9.155026e+02
  3.057270e+01    8.998843e+02
  3.060449e+01    9.145148e+02
  3.063629e+01    9.064908e+02
  3.066809e+01    9.151246e+02
  3.069988e+01    9.185348e+02
  3.073168e+01    9.162151e+02
  3.076348e+01    9.213611e+02
  3.079527e+01    9.177645e+02
  3.082707e+01    9.387463e+02
  3.085887e+01    9.100703e+02
  3.089066e+01    9.061808e+02
  3.092246e+01    9.160338e+02
  3.095426e+01    9.489196e+02
  3.098605e+01    9.333205e+02
  3.101785e+01    9.142208e+02
  3.104965e+01    9.246824e+02
  3.108145e+01    8.892683e+02
  3.111324e+01    8.725427e+02
  3.114504e+01    9.135745e+02
  3.117684e+01    9.116046e+02
  3.120863e+01    9.047054e+02
  3.124043e+01    9.104167e+02
  3.127223e+01    9.005333e+02
  3.130402e+01    8.837800e+02
  3.133582e+01    9.148099e+02
  3.136762e+01    8.982129e+02
  3.139941e+01    8.935283e+02
  3.143121e+01    8.954837e+02
  3.146301e+01    9.037703e+02
  3.149480e+01    8.972228e+02
  3.152660e+01    9.074706e+02
  3.155840e+01    9.093664e+02
  3.159020e+01    9.152701e+02
  3.162199e+01    8.966348e+02
  3.165379e+01    9.014776e+02
  3.168559e+01    8.900185e+02
  3.171738e+01    8.837007e+02
  3.174918e+01    8.913434e+02
  3.178098e+01    8.950158e+02
  3.181277e+01    9.011652e+02
  3.184457e+01    8.949615e+02
  3.187637e+01    9.062516e+02
  3.190816e+01    8.903825e+02
  3.193996e+01    8.848377e+02
  3.197176e+01    8.984868e+02
  3.200355e+01    8.776252e+02
  3.203535e+01    8.817804e+02
  3.206715e+01    9.010834e+02
  3.209895e+01    8.767855e+02
  3.213074e+01    8.839189e+02
  3.216254e+01    8.874039e+02
  3.219434e+01    8.834937e+02
  3.222613e+01    8.756375e+02
  3.225793e+01    8.943065e+02
  3.228973e+01    9.020115e+02
  3.232152e+01    8.937455e+02
  3.235332e+01    8.872230e+02
  3.238512e+01    9.159135e+02
  3.241691e+01    9.116152e+02
  3.244871e+01    9.097151e+02
  3.248051e+01    9.180385e+02
  3.251230e+01    8.986491e+02
  3.254410e+01    8.887961e+02
  3.257590e+01    9.030644e+02
  3.260770e+01    9.050501e+02
  3.263949e+01    9.002663e+02
  3.267129e+01    8.863047e+02
  3.270309e+01    8.918099e+02
  3.273488e+01    8.978743e+02
  3.276668e+01    8.960503e+02
  3.279848e+01    8.831469e+02
  3.283027e+01    8.966505e+02
  3.286207e+01    8.987387e+02
  3.289387e+01    8.889140e+02
  3.292566e+01    8.967214e+02
  3.295746e+01    9.032916e+02
  3.298926e+01    8.868590e+02
  3.302105e+01    8.795998e+02
  3.305285e+01    8.983017e+02
  3.308465e+01    8.963174e+02
  3.311645e+01    8.978013e+02
  3.314824e+01    8.936540e+02
  3.318004e+01    8.764658e+02
  3.321184e+01    8.842459e+02
  3.324363e+01    8.992250e+02
  3.327543e+01    8.981845e+02
  3.330723e+01    8.902753e+02
  3.333902e+01    9.057856e+02
  3.337082e+01    8.825215e+02
  3.340262e+01    9.063865e+02
  3.343441e+01    9.082693e+02
  3.346621e+01    9.006265e+02
  3.349801e+01    8.780968e+02
  3.352980e+01    8.879456e+02
  3.356160e+01    8.965192e+02
  3.359340e+01    8.789540e+02
  3.362520e+01    8.953055e+02
  3.365699e+01    8.859799e+02
  3.368879e+01    8.747992e+02
  3.372059e+01    8.855952e+02
  3.375238e+01    8.746107e+02
  3.378418e+01    8.551524e+02
  3.381598e+01    8.748655e+02
  3.384777e+01    8.738986e+02
  3.387957e+01    8.676480e+02
  3.391137e+01    8.725970e+02
  3.394316e+01    8.628220e+02
  3.397496e+01    8.558477e+02
  3.400676e+01    8.894935e+02
  3.403855e+01    8.865295e+02
  3.407035e+01    8.948608e+02
  3.410215e+01    8.846882e+02
  3.413395e+01    8.947706e+02
  3.416574e+01    9.111989e+02
  3.419754e+01    8.916195e+02
  3.422934e+01    8.952991e+02
  3.426113e+01    8.819515e+02
  3.429293e+01    9.026036e+02
  3.432473e+01    8.827650e+02
  3.435652e+01    8.776479e+02
  3.438832e+01    8.863546e+02
  3.442012e+01    8.888861e+02
  3.445191e+01    8.994237e+02
  3.448371e+01    8.891401e+02
  3.451551e+01    8.919133e+02
  3.454730e+01    8.794811e+02
  3.457910e+01    8.962922e+02
  3.461090e+01    8.994790e+02
  3.464270e+01    9.065430e+02
  3.467449e+01    9.188032e+02
  3.470629e+01    8.940920e+02
  3.473809e+01    8.969113e+02
  3.476988e+01    8.977907e+02
  3.480168e+01    9.013209e+02
  3.483348e+01    9.164739e+02
  3.486527e+01    8.886051e+02
  3.489707e+01    9.035811e+02
  3.492887e+01    9.121014e+02
  3.496066e+01    9.055894e+02
  3.499246e+01    9.080078e+02
  3.502426e+01    9.069882e+02
  3.505605e+01    9.198692e+02
  3.508785e+01    9.131465e+02
  3.511965e+01    9.230845e+02
  3.515145e+01    9.045103e+02
  3.518324e+01    9.168110e+02
  3.521504e+01    9.257075e+02
  3.524684e+01    9.447714e+02
  3.527863e+01    9.277316e+02
  3.531043e+01    9.280037e+02
  3.534223e+01    9.305836e+02
  3.537402e+01    9.360305e+02
  3.540582e+01    9.269102e+02
  3.543762e+01    9.478525e+02
  3.546941e+01    9.238425e+02
  3.550121e+01    9.169335e+02
  3.553301e+01    9.187079e+02
  3.556480e+01    9.403870e+02
  3.559660e+01    9.250225e+02
  3.562840e+01    9.280157e+02
  3.566020e+01    9.405071e+02
  3.569199e+01    9.396398e+02
  3.572379e+01    9.174235e+02
  3.575559e+01    9.418833e+02
  3.578738e+01    9.311747e+02
  3.581918e+01    9.614671e+02
  3.585098e+01    9.559544e+02
  3.588277e+01    9.541298e+02
  3.591457e+01    9.412511e+02
  3.594637e+01    9.377728e+02
  3.597816e+01    9.681083e+02
  3.600996e+01    9.712620e+02
  3.604176e+01    9.542355e+02
  3.607355e+01    9.674075e+02
  3.610535e+01    9.806757e+02
  3.613715e+01    9.658298e+02
  3.616895e+01    9.567700e+02
  3.620074e+01    9.432517e+02
  3.623254e+01    9.563416e+02
  3.626434e+01    9.537872e+02
  3.629613e+01    9.487536e+02
  3.632793e+01    9.707354e+02
  3.635973e+01    9.458748e+02
  3.639152e+01    9.427000e+02
  3.642332e+01    9.656013e+02
  3.645512e+01    9.616826e+02
  3.648691e+01    9.639575e+02
  3.651871e+01    9.619369e+02
  3.655051e+01    9.497169e+02
  3.658230e+01    9.619344e+02
  3.661410e+01    9.620273e+02
  3.664590e+01    9.769028e+02
  3.667770e+01    9.526895e+02
  3.670949e+01    9.414153e+02
  3.674129e+01    9.655206e+02
  3.677309e+01    9.488243e+02
  3.680488e+01    9.416301e+02
  3.683668e+01    9.501793e+02
  3.686848e+01    9.453746e+02
  3.690027e+01    9.217853e+02
  3.693207e+01    9.221402e+02
  3.696387e+01    9.289230e+02
  3.699566e+01    9.187236e+02
  3.702746e+01    8.813523e+02
  3.705926e+01    8.824141e+02
  3.709105e+01    8.729634e+02
  3.712285e+01    8.710241e+02
  3.715465e+01    8.422229e+02
  3.718645e+01    8.358535e+02
  3.721824e+01    8.636823e+02
  3.725004e+01    8.589338e+02
  3.728184e+01    8.201100e+02
  3.731363e+01    8.425435e+02
  3.734543e+01    8.152635e+02
  3.737723e+01    8.503894e+02
  3.740902e+01    8.254182e+02
  3.744082e+01    8.157078e+02
  3.747262e+01    8.069280e+02
  3.750441e+01    7.727239e+02
  3.753621e+01    7.579901e+02
  3.756801e+01    7.583818e+02
  3.759980e+01    7.578166e+02
  3.763160e+01    7.664983e+02
  3.766340e+01    7.527310e+02
  3.769520e+01    7.595173e+02
  3.772699e+01    7.554923e+02
  3.775879e+01    7.522058e+02
  3.779059e+01    7.627799e+02
  3.782238e+01    7.576954e+02
  3.785418e+01    7.471747e+02
  3.788598e+01    7.393233e+02
  3.791777e+01    7.566405e+02
  3.794957e+01    7.277456e+02
  3.798137e+01    7.525051e+02
  3.801316e+01    7.566581e+02
  3.804496e+01    7.938275e+02
  3.807676e+01    7.617623e+02
  3.810855e+01    7.556439e+02
  3.814035e+01    7.741458e+02
  3.817215e+01    7.737098e+02
  3.820395e+01    7.574440e+02
  3.823574e+01    7.517223e+02
  3.826754e+01    7.510426e+02
  3.829934e+01    7.674504e+02
  3.833113e+01    7.594352e+02
  3.836293e+01    7.539064e+02
  3.839473e+01    7.591682e+02
  3.842652e+01    7.478129e+02
  3.845832e+01    7.519799e+02
  3.849012e+01    7.610920e+02
  3.852191e+01    7.643567e+02
  3.855371e+01    7.707397e+02
  3.858551e+01    7.707049e+02
  3.861730e+01    7.638373e+02
  3.864910e+01    7.625606e+02
  3.868090e+01    7.667518e+02
  3.871270e+01    7.572419e+02
  3.874449e+01    7.843373e+02
  3.877629e+01    7.623147e+02
  3.880809e+01    7.716938e+02
  3.883988e+01    7.729362e+02
  3.887168e+01    7.795298e+02
  3.890348e+01    7.911304e+02
  3.893527e+01    7.706641e+02
  3.896707e+01    7.952605e+02
  3.899887e+01    7.768852e+02
  3.903066e+01    7.970092e+02
  3.906246e+01    8.071122e+02
  3.909426e+01    8.105863e+02
  3.912605e+01    8.247841e+02
  3.915785e+01    8.021074e+02
  3.918965e+01    7.893240e+02
  3.922145e+01    8.198956e+02
  3.925324e+01    7.920284e+02
  3.928504e+01    8.060269e+02
  3.931684e+01    8.046194e+02
  3.934863e+01    8.108489e+02
  3.938043e+01    7.950937e+02
  3.941223e+01    8.147499e+02
  3.944402e+01    8.134557e+02
  3.947582e+01    8.133478e+02
  3.950762e+01    7.952892e+02
  3.953941e+01    8.083202e+02
  3.957121e+01    8.124913e+02
  3.960301e+01    8.099468e+02
  3.963480e+01    8.164889e+02
  3.966660e+01    8.280710e+02
  3.969840e+01    8.507794e+02
  3.973020e+01    8.280896e+02
  3.976199e+01    8.207473e+02
  3.979379e+01    8.301498e+02
  3.982559e+01    8.252319e+02
  3.985738e+01    8.546611e+02
  3.988918e+01    8.280061e+02
  3.992098e+01    8.275070e+02
  3.995277e+01    8.479142e+02
  3.998457e+01    8.147029e+02
  4.001637e+01    8.268705e+02
  4.004816e+01    8.534221e+02
  4.007996e+01    8.409105e+02
  4.011176e+01    8.092867e+02
  4.014355e+01    8.172479e+02
  4.017535e+01    8.195460e+02
  4.020715e+01    8.342884e+02
  4.023895e+01    8.422113e+02
  4.027074e+01    8.493680e+02
  4.030254e+01    8.423587e+02
  4.033434e+01    8.357234e+02
  4.036613e+01    8.473943e+02
  4.039793e+01    8.419697e+02
  4.042973e+01    8.499673e+02
  4.046152e+01    8.648274e+02
  4.049332e+01    8.647326e+02
  4.052512e+01    8.499763e+02
  4.055691e+01    8.232389e+02
  4.058871e+01    9.087129e+02
  4.062051e+01    8.523593e+02
  4.065230e+01    8.591598e+02
  4.068410e+01    8.425299e+02
  4.071590e+01    8.308793e+02
  4.074770e+01    8.453320e+02
  4.077949e+01    8.281772e+02
  4.081129e+01    8.327288e+02
  4.084309e+01    8.301593e+02
  4.087488e+01    8.377724e+02
  4.090668e+01    8.462239e+02
  4.093848e+01    8.724637e+02
  4.097027e+01    8.547946e+02
  4.100207e+01    8.604678e+02
  4.103387e+01    8.576104e+02
  4.106566e+01    8.577553e+02
  4.109746e+01    8.640165e+02
  4.112926e+01    8.701290e+02
  4.116105e+01    8.701557e+02
  4.119285e+01    8.718622e+02
  4.122465e+01    8.712743e+02
  4.125645e+01    8.535554e+02
  4.128824e+01    8.657312e+02
  4.132004e+01    8.544054e+02
  4.135184e+01    8.844881e+02
  4.138363e+01    8.990133e+02
  4.141543e+01    8.718859e+02
  4.144723e+01    8.932084e+02
  4.147902e+01    9.062912e+02
  4.151082e+01    8.711203e+02
  4.154262e+01    8.830298e+02
  4.157441e+01    8.710516e+02
  4.160621e+01    9.083385e+02
  4.163801e+01    8.800795e+02
  4.166980e+01    8.833160e+02
  4.170160e+01    8.823978e+02
  4.173340e+01    9.079274e+02
  4.176520e+01    9.077073e+02
  4.179699e+01    9.009650e+02
  4.182879e+01    8.871098e+02
  4.186059e+01    9.214591e+02
  4.189238e+01    9.320699e+02
  4.192418e+01    9.139147e+02
  4.195598e+01    8.940577e+02
  4.198777e+01    9.090838e+02
  4.201957e+01    9.140985e+02
  4.205137e+01    9.236030e+02
  4.208316e+01    9.263670e+02
  4.211496e+01    9.079178e+02
  4.214676e+01    9.004706e+02
  4.217855e+01    9.262722e+02
  4.221035e+01    9.210811e+02
  4.224215e+01    9.194955e+02
  4.227395e+01    8.924752e+02
  4.230574e+01    9.257912e+02
  4.233754e+01    9.064996e+02
  4.236934e+01    9.142626e+02
  4.240113e+01    9.147169e+02
  4.243293e+01    8.893663e+02
  4.246473e+01    9.220210e+02
  4.249652e+01    9.131255e+02
  4.252832e+01    9.360163e+02
  4.256012e+01    9.494834e+02
  4.259191e+01    9.593932e+02
  4.262371e+01    9.617064e+02
  4.265551e+01    9.343324e+02
  4.268730e+01    9.519695e+02
  4.271910e+01    9.094671e+02
  4.275090e+01    9.387357e+02
  4.278270e+01    9.191116e+02
  4.281449e+01    9.472945e+02
  4.284629e+01    9.240795e+02
  4.287809e+01    9.470947e+02
  4.290988e+01    9.513362e+02
  4.294168e+01    9.620342e+02
  4.297348e+01    1.197107e+03
  4.300527e+01    1.014792e+03
  4.303707e+01    9.556635e+02
  4.306887e+01    9.647109e+02
  4.310066e+01    9.539990e+02
  4.313246e+01    9.633189e+02
  4.316426e+01    9.342227e+02
  4.319605e+01    9.702894e+02
  4.322785e+01    9.925436e+02
  4.325965e+01    9.709636e+02
  4.329145e+01    9.453757e+02
  4.332324e+01    9.650060e+02
  4.335504e+01    9.474520e+02
  4.338684e+01    9.693007e+02
  4.341863e+01    9.522173e+02
  4.345043e+01    9.690314e+02
  4.348223e+01    9.570738e+02
  4.351402e+01    9.584416e+02
  4.354582e+01    9.495684e+02
  4.357762e+01    9.743287e+02
  4.360941e+01    9.702488e+02
  4.364121e+01    9.614413e+02
  4.367301e+01    9.806683e+02
  4.370480e+01    9.556897e+02
  4.373660e+01    9.552611e+02
  4.376840e+01    9.658875e+02
  4.380020e+01    9.205201e+02
  4.383199e+01    9.369347e+02
  4.386379e+01    9.383251e+02
  4.389559e+01    9.463987e+02
  4.392738e+01    9.531592e+02
  4.395918e+01    9.493439e+02
  4.399098e+01    9.305252e+02
  4.402277e+01    9.457437e+02
  4.405457e+01    9.686331e+02
  4.408637e+01    9.091705e+02
  4.411816e+01    1.181132e+03
  4.414996e+01    1.150666e+03
  4.418176e+01    0.000000e+00
  4.421355e+01    0.000000e+00
  4.424535e+01    0.000000e+00
  4.427715e+01    0.000000e+00
  4.430895e+01    0.000000e+00
  4.434074e+01    0.000000e+00
  4.437254e+01    0.000000e+00
  4.440434e+01    0.000000e+00
  4.443613e+01    0.000000e+00
  4.446793e+01    0.000000e+00
  4.449973e+01    0.000000e+00
