D:\Arbeit\APS\Projects\Fe7C3 melting\BGI time\Fe7C3_300\Fe7C3_300_020.tif: 2-the
2-Theta Angle (Degrees)

       1449
 1.0420958E-02  3.5596943E+01
 3.1262871E-02  3.6520355E+01
 5.2104786E-02  3.6628349E+01
 7.2946705E-02  3.6838097E+01
 9.3788616E-02  3.6779118E+01
 1.1463053E-01  3.6312386E+01
 1.3547245E-01  3.5292435E+01
 1.5631436E-01  3.5659515E+01
 1.7715627E-01  3.6109505E+01
 1.9799820E-01  3.6308968E+01
 2.1884011E-01  3.7322372E+01
 2.3968202E-01  3.7133125E+01
 2.6052395E-01  3.6785015E+01
 2.8136584E-01  3.6504440E+01
 3.0220777E-01  3.6586662E+01
 3.2304966E-01  3.6015709E+01
 3.4389159E-01  3.5372219E+01
 3.6473352E-01  3.5630276E+01
 3.8557541E-01  3.5642132E+01
 4.0641734E-01  3.5732189E+01
 4.2725927E-01  3.6130455E+01
 4.4810116E-01  3.6750381E+01
 4.6894309E-01  3.7482994E+01
 4.8978499E-01  3.7443855E+01
 5.1062691E-01  3.7069263E+01
 5.3146881E-01  3.7473389E+01
 5.5231076E-01  3.8474735E+01
 5.7315266E-01  3.9318901E+01
 5.9399456E-01  3.9700356E+01
 6.1483645E-01  3.9758209E+01
 6.3567841E-01  3.9816799E+01
 6.5652031E-01  3.9458961E+01
 6.7736220E-01  3.9359959E+01
 6.9820416E-01  4.0293709E+01
 7.1904606E-01  4.1131023E+01
 7.3988795E-01  4.1231144E+01
 7.6072991E-01  4.1592648E+01
 7.8157181E-01  4.2210098E+01
 8.0241370E-01  4.2853603E+01
 8.2325566E-01  4.2924057E+01
 8.4409755E-01  4.3073902E+01
 8.6493945E-01  4.4063450E+01
 8.8578135E-01  4.5845020E+01
 9.0662330E-01  4.6678509E+01
 9.2746520E-01  4.6621078E+01
 9.4830710E-01  4.6753044E+01
 9.6914905E-01  4.7676933E+01
 9.8999095E-01  4.9083271E+01
 1.0108329E+00  4.9686142E+01
 1.0316747E+00  5.0592407E+01
 1.0525167E+00  5.1334911E+01
 1.0733587E+00  5.2195568E+01
 1.0942005E+00  5.3245708E+01
 1.1150424E+00  5.5013664E+01
 1.1358844E+00  5.6739178E+01
 1.1567262E+00  5.8118244E+01
 1.1775682E+00  5.9757832E+01
 1.1984102E+00  6.1534168E+01
 1.2192520E+00  6.3098110E+01
 1.2400939E+00  6.4868332E+01
 1.2609358E+00  6.7374474E+01
 1.2817777E+00  7.0062645E+01
 1.3026197E+00  7.2022766E+01
 1.3234615E+00  7.4182663E+01
 1.3443035E+00  7.6343933E+01
 1.3651454E+00  7.8432533E+01
 1.3859873E+00  8.0997993E+01
 1.4068292E+00  8.2914482E+01
 1.4276712E+00  8.4601791E+01
 1.4485130E+00  8.6475258E+01
 1.4693550E+00  8.8925423E+01
 1.4901969E+00  9.1213890E+01
 1.5110388E+00  9.3019958E+01
 1.5318807E+00  9.5356369E+01
 1.5527227E+00  9.6507263E+01
 1.5735645E+00  9.8288292E+01
 1.5944065E+00  1.0044043E+02
 1.6152484E+00  1.0243029E+02
 1.6360903E+00  1.0441152E+02
 1.6569322E+00  1.0604832E+02
 1.6777742E+00  1.0765941E+02
 1.6986160E+00  1.0913789E+02
 1.7194580E+00  1.1160909E+02
 1.7402998E+00  1.1403416E+02
 1.7611418E+00  1.1610023E+02
 1.7819837E+00  1.1802299E+02
 1.8028256E+00  1.2002006E+02
 1.8236675E+00  1.2090807E+02
 1.8445095E+00  1.2198229E+02
 1.8653513E+00  1.2311494E+02
 1.8861933E+00  1.2480883E+02
 1.9070352E+00  1.2642928E+02
 1.9278771E+00  1.2838312E+02
 1.9487190E+00  1.2986133E+02
 1.9695610E+00  1.3043066E+02
 1.9904028E+00  1.3066153E+02
 2.0112448E+00  1.3158168E+02
 2.0320866E+00  1.3293813E+02
 2.0529287E+00  1.3340668E+02
 2.0737705E+00  1.3384047E+02
 2.0946124E+00  1.3510619E+02
 2.1154544E+00  1.3598792E+02
 2.1362963E+00  1.3625911E+02
 2.1571381E+00  1.3700011E+02
 2.1779802E+00  1.3760475E+02
 2.1988220E+00  1.3847498E+02
 2.2196639E+00  1.3954749E+02
 2.2405059E+00  1.4024973E+02
 2.2613478E+00  1.4013802E+02
 2.2821896E+00  1.4035638E+02
 2.3030317E+00  1.4089780E+02
 2.3238735E+00  1.4145728E+02
 2.3447154E+00  1.4216418E+02
 2.3655574E+00  1.4261938E+02
 2.3863993E+00  1.4366980E+02
 2.4072411E+00  1.4474001E+02
 2.4280832E+00  1.4537428E+02
 2.4489250E+00  1.4539926E+02
 2.4697669E+00  1.4563824E+02
 2.4906087E+00  1.4630269E+02
 2.5114508E+00  1.4653320E+02
 2.5322926E+00  1.4678728E+02
 2.5531344E+00  1.4688475E+02
 2.5739765E+00  1.4739426E+02
 2.5948184E+00  1.4778487E+02
 2.6156602E+00  1.4840063E+02
 2.6365023E+00  1.4862259E+02
 2.6573441E+00  1.4928922E+02
 2.6781859E+00  1.5013171E+02
 2.6990280E+00  1.5125699E+02
 2.7198699E+00  1.5162915E+02
 2.7407117E+00  1.5157506E+02
 2.7615538E+00  1.5208138E+02
 2.7823956E+00  1.5309598E+02
 2.8032374E+00  1.5316469E+02
 2.8240795E+00  1.5266258E+02
 2.8449214E+00  1.5261978E+02
 2.8657632E+00  1.5226749E+02
 2.8866053E+00  1.5269014E+02
 2.9074471E+00  1.5376236E+02
 2.9282889E+00  1.5423265E+02
 2.9491310E+00  1.5419388E+02
 2.9699728E+00  1.5421477E+02
 2.9908147E+00  1.5446547E+02
 3.0116568E+00  1.5431633E+02
 3.0324986E+00  1.5416576E+02
 3.0533404E+00  1.5439552E+02
 3.0741825E+00  1.5538651E+02
 3.0950243E+00  1.5612077E+02
 3.1158662E+00  1.5626982E+02
 3.1367083E+00  1.5721605E+02
 3.1575501E+00  1.5788882E+02
 3.1783919E+00  1.5850273E+02
 3.1992340E+00  1.5899425E+02
 3.2200758E+00  1.5963109E+02
 3.2409177E+00  1.5985905E+02
 3.2617598E+00  1.5988408E+02
 3.2826016E+00  1.5999496E+02
 3.3034434E+00  1.5991408E+02
 3.3242855E+00  1.6002127E+02
 3.3451273E+00  1.6035655E+02
 3.3659692E+00  1.6170621E+02
 3.3868113E+00  1.6259456E+02
 3.4076531E+00  1.6330507E+02
 3.4284949E+00  1.6423564E+02
 3.4493368E+00  1.6467172E+02
 3.4701788E+00  1.6530196E+02
 3.4910207E+00  1.6580299E+02
 3.5118625E+00  1.6608250E+02
 3.5327046E+00  1.6633171E+02
 3.5535464E+00  1.6670389E+02
 3.5743883E+00  1.6677579E+02
 3.5952303E+00  1.6728366E+02
 3.6160722E+00  1.6859898E+02
 3.6369140E+00  1.7010849E+02
 3.6577561E+00  1.7120259E+02
 3.6785979E+00  1.7256859E+02
 3.6994398E+00  1.7384830E+02
 3.7202818E+00  1.7493753E+02
 3.7411237E+00  1.7732220E+02
 3.7619655E+00  1.7980864E+02
 3.7828076E+00  1.8233952E+02
 3.8036494E+00  1.8487086E+02
 3.8244913E+00  1.8796710E+02
 3.8453333E+00  1.9109343E+02
 3.8661752E+00  1.9438689E+02
 3.8870170E+00  1.9729726E+02
 3.9078591E+00  2.0048325E+02
 3.9287009E+00  2.0349931E+02
 3.9495428E+00  2.0604308E+02
 3.9703848E+00  2.0829305E+02
 3.9912267E+00  2.1145055E+02
 4.0120687E+00  2.1448804E+02
 4.0329103E+00  2.1677510E+02
 4.0537524E+00  2.1925418E+02
 4.0745945E+00  2.2190015E+02
 4.0954361E+00  2.2491684E+02
 4.1162782E+00  2.2774843E+02
 4.1371202E+00  2.3058998E+02
 4.1579618E+00  2.3275301E+02
 4.1788039E+00  2.3453973E+02
 4.1996460E+00  2.3703252E+02
 4.2204876E+00  2.4038193E+02
 4.2413297E+00  2.4243179E+02
 4.2621717E+00  2.4416183E+02
 4.2830133E+00  2.4716301E+02
 4.3038554E+00  2.5038934E+02
 4.3246975E+00  2.5250577E+02
 4.3455391E+00  2.5440730E+02
 4.3663812E+00  2.5660129E+02
 4.3872232E+00  2.5955743E+02
 4.4080648E+00  2.6276105E+02
 4.4289069E+00  2.6653992E+02
 4.4497490E+00  2.6949225E+02
 4.4705906E+00  2.7245642E+02
 4.4914327E+00  2.7550299E+02
 4.5122747E+00  2.7754495E+02
 4.5331163E+00  2.7948825E+02
 4.5539584E+00  2.8178809E+02
 4.5748005E+00  2.8511514E+02
 4.5956421E+00  2.8864734E+02
 4.6164842E+00  2.9278494E+02
 4.6373262E+00  2.9676392E+02
 4.6581678E+00  3.0068842E+02
 4.6790099E+00  3.0514871E+02
 4.6998520E+00  3.1012747E+02
 4.7206936E+00  3.1554395E+02
 4.7415357E+00  3.2091592E+02
 4.7623777E+00  3.2741010E+02
 4.7832193E+00  3.3404654E+02
 4.8040614E+00  3.4065952E+02
 4.8249035E+00  3.4802347E+02
 4.8457451E+00  3.5487323E+02
 4.8665872E+00  3.6073206E+02
 4.8874292E+00  3.6577405E+02
 4.9082708E+00  3.7078784E+02
 4.9291129E+00  3.7585519E+02
 4.9499545E+00  3.8141370E+02
 4.9707966E+00  3.8522253E+02
 4.9916387E+00  3.8984589E+02
 5.0124803E+00  3.9524255E+02
 5.0333223E+00  3.9951498E+02
 5.0541644E+00  4.0354306E+02
 5.0750060E+00  4.0817236E+02
 5.0958481E+00  4.1312051E+02
 5.1166902E+00  4.1710391E+02
 5.1375318E+00  4.2179095E+02
 5.1583738E+00  4.2648428E+02
 5.1792159E+00  4.3039682E+02
 5.2000575E+00  4.3541614E+02
 5.2208996E+00  4.4092847E+02
 5.2417417E+00  4.4513516E+02
 5.2625833E+00  4.4944345E+02
 5.2834253E+00  4.5491425E+02
 5.3042674E+00  4.5892233E+02
 5.3251090E+00  4.6167950E+02
 5.3459511E+00  4.6391223E+02
 5.3667932E+00  4.6713727E+02
 5.3876348E+00  4.7022290E+02
 5.4084768E+00  4.7314886E+02
 5.4293189E+00  4.7634509E+02
 5.4501605E+00  4.7815723E+02
 5.4710026E+00  4.8011447E+02
 5.4918447E+00  4.8223209E+02
 5.5126863E+00  4.8471188E+02
 5.5335283E+00  4.8725391E+02
 5.5543704E+00  4.8858026E+02
 5.5752120E+00  4.8995120E+02
 5.5960541E+00  4.9179163E+02
 5.6168962E+00  4.9335303E+02
 5.6377378E+00  4.9461783E+02
 5.6585798E+00  4.9546619E+02
 5.6794219E+00  4.9758893E+02
 5.7002635E+00  4.9982025E+02
 5.7211056E+00  5.0214377E+02
 5.7419477E+00  5.0428619E+02
 5.7627892E+00  5.0622742E+02
 5.7836313E+00  5.0827103E+02
 5.8044734E+00  5.1141714E+02
 5.8253150E+00  5.1504633E+02
 5.8461571E+00  5.1720453E+02
 5.8669991E+00  5.1897156E+02
 5.8878407E+00  5.1966315E+02
 5.9086828E+00  5.1959558E+02
 5.9295249E+00  5.1945227E+02
 5.9503665E+00  5.1770349E+02
 5.9712086E+00  5.1715173E+02
 5.9920506E+00  5.1922333E+02
 6.0128922E+00  5.2361993E+02
 6.0337343E+00  5.2892426E+02
 6.0545764E+00  5.3421863E+02
 6.0754180E+00  5.3724713E+02
 6.0962601E+00  5.3634802E+02
 6.1171021E+00  5.3387231E+02
 6.1379437E+00  5.3356604E+02
 6.1587858E+00  5.3393567E+02
 6.1796279E+00  5.3516400E+02
 6.2004695E+00  5.3667188E+02
 6.2213116E+00  5.3875513E+02
 6.2421536E+00  5.4060791E+02
 6.2629952E+00  5.4196552E+02
 6.2838373E+00  5.4403522E+02
 6.3046794E+00  5.4599176E+02
 6.3255210E+00  5.4878009E+02
 6.3463631E+00  5.5140057E+02
 6.3672051E+00  5.5373285E+02
 6.3880467E+00  5.5770105E+02
 6.4088888E+00  5.6096118E+02
 6.4297309E+00  5.6296558E+02
 6.4505725E+00  5.6309113E+02
 6.4714146E+00  5.6295062E+02
 6.4922566E+00  5.6191980E+02
 6.5130982E+00  5.6144690E+02
 6.5339403E+00  5.6084033E+02
 6.5547824E+00  5.5945490E+02
 6.5756240E+00  5.5830096E+02
 6.5964661E+00  5.5817249E+02
 6.6173081E+00  5.5871802E+02
 6.6381497E+00  5.5936005E+02
 6.6589918E+00  5.5948248E+02
 6.6798339E+00  5.6015448E+02
 6.7006755E+00  5.6170630E+02
 6.7215176E+00  5.6280518E+02
 6.7423596E+00  5.6384082E+02
 6.7632012E+00  5.6571777E+02
 6.7840433E+00  5.6639868E+02
 6.8048854E+00  5.6723706E+02
 6.8257270E+00  5.6927679E+02
 6.8465691E+00  5.7086493E+02
 6.8674107E+00  5.7301373E+02
 6.8882527E+00  5.7523785E+02
 6.9090948E+00  5.7724115E+02
 6.9299364E+00  5.7927557E+02
 6.9507785E+00  5.8195605E+02
 6.9716206E+00  5.8437494E+02
 6.9924622E+00  5.8663965E+02
 7.0133042E+00  5.8834821E+02
 7.0341463E+00  5.9036163E+02
 7.0549879E+00  5.9306281E+02
 7.0758300E+00  5.9630017E+02
 7.0966721E+00  5.9952521E+02
 7.1175137E+00  6.0308179E+02
 7.1383557E+00  6.0676770E+02
 7.1591978E+00  6.1138593E+02
 7.1800394E+00  6.1633148E+02
 7.2008815E+00  6.2264685E+02
 7.2217236E+00  6.3032202E+02
 7.2425652E+00  6.3813757E+02
 7.2634072E+00  6.4568317E+02
 7.2842493E+00  6.5127704E+02
 7.3050909E+00  6.5575922E+02
 7.3259330E+00  6.5996515E+02
 7.3467751E+00  6.6537726E+02
 7.3676167E+00  6.7225800E+02
 7.3884587E+00  6.7800940E+02
 7.4093008E+00  6.8115552E+02
 7.4301424E+00  6.8162158E+02
 7.4509845E+00  6.8166229E+02
 7.4718266E+00  6.8052942E+02
 7.4926682E+00  6.7697327E+02
 7.5135102E+00  6.7437573E+02
 7.5343523E+00  6.7298163E+02
 7.5551939E+00  6.7156097E+02
 7.5760360E+00  6.7207495E+02
 7.5968781E+00  6.7419507E+02
 7.6177197E+00  6.7589380E+02
 7.6385617E+00  6.7637140E+02
 7.6594038E+00  6.7735455E+02
 7.6802454E+00  6.7811200E+02
 7.7010875E+00  6.7735016E+02
 7.7219296E+00  6.7865039E+02
 7.7427711E+00  6.8256213E+02
 7.7636132E+00  6.8745569E+02
 7.7844553E+00  6.9294086E+02
 7.8052969E+00  7.0097650E+02
 7.8261390E+00  7.1150256E+02
 7.8469810E+00  7.2587079E+02
 7.8678226E+00  7.4336969E+02
 7.8886647E+00  7.6527008E+02
 7.9095068E+00  7.9655164E+02
 7.9303484E+00  8.5398779E+02
 7.9511905E+00  9.6410400E+02
 7.9720325E+00  1.1915004E+03
 7.9928741E+00  1.4724822E+03
 8.0137157E+00  1.6539901E+03
 8.0345583E+00  1.6723872E+03
 8.0553999E+00  1.4842289E+03
 8.0762415E+00  1.2182009E+03
 8.0970840E+00  1.0296167E+03
 8.1179256E+00  9.2679651E+02
 8.1387672E+00  8.7305280E+02
 8.1596098E+00  8.4594586E+02
 8.1804514E+00  8.4194904E+02
 8.2012930E+00  8.6139740E+02
 8.2221355E+00  8.9226056E+02
 8.2429771E+00  9.1012030E+02
 8.2638187E+00  9.1057556E+02
 8.2846613E+00  9.0494574E+02
 8.3055029E+00  9.0221283E+02
 8.3263445E+00  9.0313953E+02
 8.3471870E+00  9.0216632E+02
 8.3680286E+00  8.9200677E+02
 8.3888702E+00  8.7155078E+02
 8.4097128E+00  8.4811676E+02
 8.4305544E+00  8.2774286E+02
 8.4513960E+00  8.1426239E+02
 8.4722385E+00  8.0810059E+02
 8.4930801E+00  8.0815320E+02
 8.5139217E+00  8.1372070E+02
 8.5347643E+00  8.2638635E+02
 8.5556059E+00  8.4873810E+02
 8.5764475E+00  8.8729413E+02
 8.5972900E+00  9.5487756E+02
 8.6181316E+00  1.0705330E+03
 8.6389732E+00  1.2423506E+03
 8.6598158E+00  1.4209854E+03
 8.6806574E+00  1.5042393E+03
 8.7014990E+00  1.4659133E+03
 8.7223415E+00  1.3621869E+03
 8.7431831E+00  1.2834874E+03
 8.7640247E+00  1.2512963E+03
 8.7848673E+00  1.2257759E+03
 8.8057089E+00  1.1778344E+03
 8.8265505E+00  1.1190554E+03
 8.8473930E+00  1.0838419E+03
 8.8682346E+00  1.1004915E+03
 8.8890762E+00  1.1755682E+03
 8.9099188E+00  1.3216010E+03
 8.9307604E+00  1.6470115E+03
 8.9516020E+00  2.0820081E+03
 8.9724445E+00  2.4898108E+03
 8.9932861E+00  2.8592510E+03
 9.0141277E+00  2.9542539E+03
 9.0349703E+00  2.6980452E+03
 9.0558119E+00  2.2940667E+03
 9.0766535E+00  1.8432610E+03
 9.0974960E+00  1.5096675E+03
 9.1183376E+00  1.2885496E+03
 9.1391792E+00  1.1336516E+03
 9.1600218E+00  1.0195397E+03
 9.1808634E+00  9.3747247E+02
 9.2017050E+00  8.8179034E+02
 9.2225475E+00  8.4366608E+02
 9.2433891E+00  8.1794281E+02
 9.2642307E+00  8.0193390E+02
 9.2850733E+00  7.9100793E+02
 9.3059149E+00  7.8255066E+02
 9.3267565E+00  7.7521790E+02
 9.3475990E+00  7.6950970E+02
 9.3684406E+00  7.6508282E+02
 9.3892822E+00  7.6106177E+02
 9.4101248E+00  7.5869586E+02
 9.4309664E+00  7.5790015E+02
 9.4518080E+00  7.5739691E+02
 9.4726505E+00  7.5653882E+02
 9.4934921E+00  7.5664703E+02
 9.5143337E+00  7.5818738E+02
 9.5351763E+00  7.6185950E+02
 9.5560179E+00  7.6530969E+02
 9.5768595E+00  7.7116449E+02
 9.5977020E+00  7.8158032E+02
 9.6185436E+00  7.9624249E+02
 9.6393852E+00  8.1449536E+02
 9.6602278E+00  8.2917438E+02
 9.6810694E+00  8.3434442E+02
 9.7019110E+00  8.3425555E+02
 9.7227535E+00  8.2771301E+02
 9.7435951E+00  8.1918280E+02
 9.7644367E+00  8.1457813E+02
 9.7852793E+00  8.1231683E+02
 9.8061209E+00  8.1403601E+02
 9.8269625E+00  8.2039886E+02
 9.8478050E+00  8.3044281E+02
 9.8686466E+00  8.4442157E+02
 9.8894882E+00  8.6572858E+02
 9.9103308E+00  8.9514594E+02
 9.9311724E+00  9.3115857E+02
 9.9520140E+00  9.6697455E+02
 9.9728565E+00  9.9042590E+02
 9.9936981E+00  9.9719696E+02
 1.0014540E+01  9.9728210E+02
 1.0035382E+01  1.0067733E+03
 1.0056224E+01  1.0395819E+03
 1.0077065E+01  1.1025793E+03
 1.0097908E+01  1.1996438E+03
 1.0118750E+01  1.3229148E+03
 1.0139591E+01  1.4453076E+03
 1.0160434E+01  1.4816824E+03
 1.0181275E+01  1.3759703E+03
 1.0202117E+01  1.2145718E+03
 1.0222960E+01  1.0901499E+03
 1.0243801E+01  1.0043934E+03
 1.0264643E+01  9.4215167E+02
 1.0285485E+01  8.9851117E+02
 1.0306327E+01  8.6746344E+02
 1.0327168E+01  8.4660529E+02
 1.0348011E+01  8.3269421E+02
 1.0368853E+01  8.2574103E+02
 1.0389694E+01  8.2512122E+02
 1.0410537E+01  8.2966113E+02
 1.0431378E+01  8.4188904E+02
 1.0452220E+01  8.6422852E+02
 1.0473063E+01  9.0132251E+02
 1.0493904E+01  9.4998669E+02
 1.0514746E+01  9.9409753E+02
 1.0535588E+01  1.0137302E+03
 1.0556430E+01  1.0016191E+03
 1.0577271E+01  9.6097778E+02
 1.0598114E+01  9.0968298E+02
 1.0618956E+01  8.6736371E+02
 1.0639797E+01  8.3840112E+02
 1.0660640E+01  8.2038434E+02
 1.0681481E+01  8.0995422E+02
 1.0702323E+01  8.0317767E+02
 1.0723166E+01  7.9897449E+02
 1.0744007E+01  7.9669958E+02
 1.0764849E+01  7.9504187E+02
 1.0785691E+01  7.9465692E+02
 1.0806533E+01  7.9585809E+02
 1.0827374E+01  7.9767609E+02
 1.0848217E+01  7.9871045E+02
 1.0869059E+01  8.0003992E+02
 1.0889900E+01  8.0148639E+02
 1.0910743E+01  8.0294104E+02
 1.0931584E+01  8.0366455E+02
 1.0952426E+01  8.0404034E+02
 1.0973269E+01  8.0428223E+02
 1.0994110E+01  8.0426428E+02
 1.1014952E+01  8.0382794E+02
 1.1035794E+01  8.0248364E+02
 1.1056636E+01  8.0243256E+02
 1.1077477E+01  8.0256964E+02
 1.1098320E+01  8.0238556E+02
 1.1119162E+01  8.0151691E+02
 1.1140003E+01  7.9978979E+02
 1.1160846E+01  7.9854462E+02
 1.1181687E+01  7.9859161E+02
 1.1202529E+01  7.9746411E+02
 1.1223372E+01  7.9698334E+02
 1.1244213E+01  7.9686267E+02
 1.1265055E+01  7.9688275E+02
 1.1285897E+01  7.9792938E+02
 1.1306739E+01  8.0000061E+02
 1.1327580E+01  8.0292090E+02
 1.1348423E+01  8.0773895E+02
 1.1369265E+01  8.1433710E+02
 1.1390106E+01  8.2127124E+02
 1.1410949E+01  8.2810986E+02
 1.1431790E+01  8.3105591E+02
 1.1452632E+01  8.2919092E+02
 1.1473475E+01  8.2418365E+02
 1.1494316E+01  8.1673724E+02
 1.1515158E+01  8.0957355E+02
 1.1536000E+01  8.0344263E+02
 1.1556842E+01  7.9899725E+02
 1.1577683E+01  7.9681781E+02
 1.1598526E+01  7.9589331E+02
 1.1619368E+01  7.9553760E+02
 1.1640209E+01  7.9396838E+02
 1.1661052E+01  7.9209180E+02
 1.1681893E+01  7.9126654E+02
 1.1702735E+01  7.9095734E+02
 1.1723577E+01  7.9037189E+02
 1.1744419E+01  7.9054340E+02
 1.1765261E+01  7.9051086E+02
 1.1786102E+01  7.8945544E+02
 1.1806945E+01  7.8935321E+02
 1.1827786E+01  7.8834930E+02
 1.1848628E+01  7.8715356E+02
 1.1869471E+01  7.8570758E+02
 1.1890312E+01  7.8424823E+02
 1.1911154E+01  7.8407947E+02
 1.1931996E+01  7.8425452E+02
 1.1952838E+01  7.8443408E+02
 1.1973680E+01  7.8431561E+02
 1.1994522E+01  7.8597308E+02
 1.2015364E+01  7.8861963E+02
 1.2036205E+01  7.9132056E+02
 1.2057048E+01  7.9457465E+02
 1.2077889E+01  7.9944446E+02
 1.2098731E+01  8.0552960E+02
 1.2119574E+01  8.1270691E+02
 1.2140415E+01  8.1952283E+02
 1.2161257E+01  8.2499030E+02
 1.2182099E+01  8.2832379E+02
 1.2202941E+01  8.2939209E+02
 1.2223783E+01  8.2714441E+02
 1.2244625E+01  8.2171503E+02
 1.2265467E+01  8.1637445E+02
 1.2286308E+01  8.1241766E+02
 1.2307151E+01  8.1034705E+02
 1.2327992E+01  8.1088440E+02
 1.2348834E+01  8.1458087E+02
 1.2369677E+01  8.2044153E+02
 1.2390518E+01  8.2714075E+02
 1.2411360E+01  8.3222400E+02
 1.2432202E+01  8.3405347E+02
 1.2453044E+01  8.3347076E+02
 1.2473886E+01  8.2798621E+02
 1.2494728E+01  8.1968750E+02
 1.2515570E+01  8.1243646E+02
 1.2536411E+01  8.0745630E+02
 1.2557254E+01  8.0384924E+02
 1.2578095E+01  8.0234796E+02
 1.2598937E+01  8.0262347E+02
 1.2619780E+01  8.0408276E+02
 1.2640621E+01  8.0551959E+02
 1.2661463E+01  8.0802893E+02
 1.2682305E+01  8.1271838E+02
 1.2703147E+01  8.1825671E+02
 1.2723989E+01  8.2625189E+02
 1.2744831E+01  8.3562225E+02
 1.2765673E+01  8.4582642E+02
 1.2786514E+01  8.5635779E+02
 1.2807357E+01  8.6310199E+02
 1.2828198E+01  8.6399139E+02
 1.2849040E+01  8.5779968E+02
 1.2869883E+01  8.4759943E+02
 1.2890724E+01  8.3709772E+02
 1.2911566E+01  8.2775214E+02
 1.2932408E+01  8.1988556E+02
 1.2953250E+01  8.1392706E+02
 1.2974092E+01  8.1025720E+02
 1.2994934E+01  8.0787372E+02
 1.3015776E+01  8.0667072E+02
 1.3036617E+01  8.0513147E+02
 1.3057460E+01  8.0500543E+02
 1.3078301E+01  8.0480188E+02
 1.3099143E+01  8.0472052E+02
 1.3119986E+01  8.0504169E+02
 1.3140827E+01  8.0590143E+02
 1.3161669E+01  8.0702484E+02
 1.3182511E+01  8.0769196E+02
 1.3203353E+01  8.0819019E+02
 1.3224195E+01  8.0969116E+02
 1.3245037E+01  8.1085065E+02
 1.3265879E+01  8.1123920E+02
 1.3286720E+01  8.1126129E+02
 1.3307563E+01  8.1186255E+02
 1.3328404E+01  8.1275549E+02
 1.3349246E+01  8.1344641E+02
 1.3370089E+01  8.1448596E+02
 1.3390930E+01  8.1440491E+02
 1.3411772E+01  8.1391675E+02
 1.3432614E+01  8.1296368E+02
 1.3453456E+01  8.1169757E+02
 1.3474298E+01  8.1089435E+02
 1.3495140E+01  8.1269952E+02
 1.3515982E+01  8.1745831E+02
 1.3536823E+01  8.2505829E+02
 1.3557666E+01  8.3483167E+02
 1.3578507E+01  8.4662085E+02
 1.3599349E+01  8.5925079E+02
 1.3620192E+01  8.7071155E+02
 1.3641033E+01  8.7830310E+02
 1.3661875E+01  8.7931348E+02
 1.3682717E+01  8.7456287E+02
 1.3703559E+01  8.6521753E+02
 1.3724401E+01  8.5485052E+02
 1.3745243E+01  8.4600934E+02
 1.3766085E+01  8.4041449E+02
 1.3786926E+01  8.3698120E+02
 1.3807769E+01  8.3449530E+02
 1.3828610E+01  8.3452557E+02
 1.3849452E+01  8.3502881E+02
 1.3870295E+01  8.3414087E+02
 1.3891136E+01  8.3296191E+02
 1.3911978E+01  8.3066559E+02
 1.3932820E+01  8.2700824E+02
 1.3953662E+01  8.2314142E+02
 1.3974504E+01  8.1854633E+02
 1.3995346E+01  8.1505219E+02
 1.4016188E+01  8.1342853E+02
 1.4037029E+01  8.1233429E+02
 1.4057872E+01  8.1340442E+02
 1.4078713E+01  8.1599402E+02
 1.4099555E+01  8.1884973E+02
 1.4120398E+01  8.2076929E+02
 1.4141239E+01  8.2083124E+02
 1.4162081E+01  8.2128015E+02
 1.4182923E+01  8.2198041E+02
 1.4203765E+01  8.2176117E+02
 1.4224607E+01  8.1933911E+02
 1.4245449E+01  8.1615363E+02
 1.4266291E+01  8.1302527E+02
 1.4287132E+01  8.0939874E+02
 1.4307975E+01  8.0622156E+02
 1.4328816E+01  8.0347723E+02
 1.4349658E+01  8.0159363E+02
 1.4370501E+01  8.0032343E+02
 1.4391342E+01  7.9946313E+02
 1.4412184E+01  7.9999945E+02
 1.4433026E+01  8.0111670E+02
 1.4453868E+01  8.0254150E+02
 1.4474710E+01  8.0599194E+02
 1.4495552E+01  8.1007452E+02
 1.4516394E+01  8.1439758E+02
 1.4537235E+01  8.1961304E+02
 1.4558078E+01  8.2631024E+02
 1.4578919E+01  8.3312024E+02
 1.4599761E+01  8.3748297E+02
 1.4620604E+01  8.3720477E+02
 1.4641445E+01  8.3393970E+02
 1.4662287E+01  8.2726501E+02
 1.4683129E+01  8.1917731E+02
 1.4703971E+01  8.1200848E+02
 1.4724813E+01  8.0569043E+02
 1.4745655E+01  8.0089227E+02
 1.4766497E+01  7.9765308E+02
 1.4787338E+01  7.9431287E+02
 1.4808181E+01  7.9167053E+02
 1.4829022E+01  7.8940778E+02
 1.4849864E+01  7.8702448E+02
 1.4870707E+01  7.8613165E+02
 1.4891548E+01  7.8551123E+02
 1.4912390E+01  7.8497534E+02
 1.4933232E+01  7.8545380E+02
 1.4954074E+01  7.8652301E+02
 1.4974916E+01  7.8777698E+02
 1.4995758E+01  7.8931079E+02
 1.5016600E+01  7.9306866E+02
 1.5037441E+01  7.9794446E+02
 1.5058284E+01  8.0460596E+02
 1.5079125E+01  8.1469257E+02
 1.5099967E+01  8.2964862E+02
 1.5120810E+01  8.4990778E+02
 1.5141651E+01  8.7543658E+02
 1.5162493E+01  9.0672766E+02
 1.5183335E+01  9.4044482E+02
 1.5204177E+01  9.6769812E+02
 1.5225019E+01  9.7972021E+02
 1.5245861E+01  9.7284747E+02
 1.5266703E+01  9.5152179E+02
 1.5287544E+01  9.2560992E+02
 1.5308387E+01  8.9985425E+02
 1.5329228E+01  8.7853973E+02
 1.5350070E+01  8.6286639E+02
 1.5370913E+01  8.5187030E+02
 1.5391754E+01  8.4563446E+02
 1.5412596E+01  8.4396582E+02
 1.5433438E+01  8.4657513E+02
 1.5454280E+01  8.5386523E+02
 1.5475121E+01  8.6744440E+02
 1.5495964E+01  8.8742163E+02
 1.5516806E+01  9.1116498E+02
 1.5537647E+01  9.3587561E+02
 1.5558490E+01  9.5418085E+02
 1.5579331E+01  9.6192566E+02
 1.5600173E+01  9.6327441E+02
 1.5621016E+01  9.5860260E+02
 1.5641857E+01  9.5460352E+02
 1.5662699E+01  9.5650989E+02
 1.5683540E+01  9.6547192E+02
 1.5704383E+01  9.7691388E+02
 1.5725224E+01  9.8499255E+02
 1.5746066E+01  9.9175323E+02
 1.5766909E+01  9.9977393E+02
 1.5787750E+01  1.0050549E+03
 1.5808592E+01  1.0047206E+03
 1.5829434E+01  9.9344305E+02
 1.5850276E+01  9.6973828E+02
 1.5871118E+01  9.3580817E+02
 1.5891960E+01  8.9631879E+02
 1.5912802E+01  8.5977924E+02
 1.5933643E+01  8.3011572E+02
 1.5954486E+01  8.0838031E+02
 1.5975327E+01  7.9425781E+02
 1.5996169E+01  7.8388806E+02
 1.6017012E+01  7.7695227E+02
 1.6037853E+01  7.7266840E+02
 1.6058695E+01  7.6979865E+02
 1.6079536E+01  7.6777484E+02
 1.6100380E+01  7.6588654E+02
 1.6121222E+01  7.6405408E+02
 1.6142063E+01  7.6327374E+02
 1.6162905E+01  7.6289526E+02
 1.6183746E+01  7.6261749E+02
 1.6204588E+01  7.6374188E+02
 1.6225431E+01  7.6581421E+02
 1.6246273E+01  7.6775159E+02
 1.6267115E+01  7.6890851E+02
 1.6287956E+01  7.7056488E+02
 1.6308798E+01  7.7157440E+02
 1.6329639E+01  7.7118085E+02
 1.6350483E+01  7.6794952E+02
 1.6371325E+01  7.6245221E+02
 1.6392166E+01  7.5833270E+02
 1.6413008E+01  7.5502838E+02
 1.6433849E+01  7.5212280E+02
 1.6454691E+01  7.4994006E+02
 1.6475534E+01  7.4731775E+02
 1.6496376E+01  7.4464874E+02
 1.6517218E+01  7.4189026E+02
 1.6538059E+01  7.3956628E+02
 1.6558901E+01  7.3813904E+02
 1.6579742E+01  7.3677136E+02
 1.6600586E+01  7.3450677E+02
 1.6621428E+01  7.3303595E+02
 1.6642269E+01  7.3194928E+02
 1.6663111E+01  7.3053766E+02
 1.6683952E+01  7.2860687E+02
 1.6704794E+01  7.2670605E+02
 1.6725637E+01  7.2553577E+02
 1.6746479E+01  7.2413983E+02
 1.6767321E+01  7.2240393E+02
 1.6788162E+01  7.2044659E+02
 1.6809004E+01  7.1919836E+02
 1.6829845E+01  7.1901880E+02
 1.6850689E+01  7.1829071E+02
 1.6871531E+01  7.1698578E+02
 1.6892372E+01  7.1587567E+02
 1.6913214E+01  7.1431500E+02
 1.6934055E+01  7.1285699E+02
 1.6954897E+01  7.1182898E+02
 1.6975740E+01  7.1089240E+02
 1.6996582E+01  7.1015582E+02
 1.7017424E+01  7.0978223E+02
 1.7038265E+01  7.0986993E+02
 1.7059107E+01  7.1002734E+02
 1.7079948E+01  7.1058453E+02
 1.7100792E+01  7.1237415E+02
 1.7121634E+01  7.1436176E+02
 1.7142475E+01  7.1667975E+02
 1.7163317E+01  7.1886682E+02
 1.7184158E+01  7.2069684E+02
 1.7205000E+01  7.2360480E+02
 1.7225843E+01  7.2537543E+02
 1.7246685E+01  7.2581787E+02
 1.7267527E+01  7.2565680E+02
 1.7288368E+01  7.2397040E+02
 1.7309210E+01  7.2153961E+02
 1.7330051E+01  7.1955627E+02
 1.7350895E+01  7.1857587E+02
 1.7371737E+01  7.1765106E+02
 1.7392578E+01  7.1618195E+02
 1.7413420E+01  7.1476581E+02
 1.7434261E+01  7.1276288E+02
 1.7455103E+01  7.1085138E+02
 1.7475946E+01  7.0890533E+02
 1.7496788E+01  7.0698242E+02
 1.7517630E+01  7.0547864E+02
 1.7538471E+01  7.0439862E+02
 1.7559313E+01  7.0445062E+02
 1.7580154E+01  7.0453967E+02
 1.7600998E+01  7.0384210E+02
 1.7621840E+01  7.0318750E+02
 1.7642681E+01  7.0155487E+02
 1.7663523E+01  7.0098480E+02
 1.7684364E+01  7.0056720E+02
 1.7705206E+01  7.0016455E+02
 1.7726048E+01  6.9974615E+02
 1.7746891E+01  6.9946393E+02
 1.7767733E+01  7.0017706E+02
 1.7788574E+01  7.0120807E+02
 1.7809416E+01  7.0212244E+02
 1.7830257E+01  7.0316425E+02
 1.7851099E+01  7.0344946E+02
 1.7871943E+01  7.0403607E+02
 1.7892784E+01  7.0467010E+02
 1.7913626E+01  7.0560400E+02
 1.7934467E+01  7.0733643E+02
 1.7955309E+01  7.0995947E+02
 1.7976151E+01  7.1384259E+02
 1.7996994E+01  7.1764429E+02
 1.8017836E+01  7.2058136E+02
 1.8038677E+01  7.2297607E+02
 1.8059519E+01  7.2398749E+02
 1.8080360E+01  7.2433301E+02
 1.8101202E+01  7.2372192E+02
 1.8122046E+01  7.2284302E+02
 1.8142887E+01  7.2034753E+02
 1.8163729E+01  7.1720538E+02
 1.8184570E+01  7.1484192E+02
 1.8205412E+01  7.1218195E+02
 1.8226254E+01  7.0960577E+02
 1.8247097E+01  7.0727472E+02
 1.8267939E+01  7.0592554E+02
 1.8288780E+01  7.0419739E+02
 1.8309622E+01  7.0226361E+02
 1.8330463E+01  7.0100635E+02
 1.8351305E+01  6.9998926E+02
 1.8372149E+01  6.9926508E+02
 1.8392990E+01  6.9946899E+02
 1.8413832E+01  6.9993323E+02
 1.8434673E+01  7.0067993E+02
 1.8455515E+01  7.0142554E+02
 1.8476357E+01  7.0218311E+02
 1.8497200E+01  7.0309906E+02
 1.8518042E+01  7.0345728E+02
 1.8538883E+01  7.0418811E+02
 1.8559725E+01  7.0416193E+02
 1.8580566E+01  7.0370050E+02
 1.8601408E+01  7.0433826E+02
 1.8622252E+01  7.0492468E+02
 1.8643093E+01  7.0593750E+02
 1.8663935E+01  7.0654041E+02
 1.8684776E+01  7.0752344E+02
 1.8705618E+01  7.0972858E+02
 1.8726460E+01  7.1095612E+02
 1.8747303E+01  7.1084589E+02
 1.8768145E+01  7.1047620E+02
 1.8788986E+01  7.1005463E+02
 1.8809828E+01  7.0993524E+02
 1.8830669E+01  7.0995251E+02
 1.8851511E+01  7.0897247E+02
 1.8872355E+01  7.0863409E+02
 1.8893196E+01  7.0814374E+02
 1.8914038E+01  7.0715369E+02
 1.8934879E+01  7.0637402E+02
 1.8955721E+01  7.0506836E+02
 1.8976563E+01  7.0408075E+02
 1.8997406E+01  7.0285547E+02
 1.9018248E+01  7.0173914E+02
 1.9039089E+01  7.0083014E+02
 1.9059931E+01  7.0012842E+02
 1.9080772E+01  6.9860339E+02
 1.9101614E+01  6.9730383E+02
 1.9122458E+01  6.9587439E+02
 1.9143299E+01  6.9482428E+02
 1.9164141E+01  6.9429895E+02
 1.9184982E+01  6.9318115E+02
 1.9205824E+01  6.9329803E+02
 1.9226665E+01  6.9316864E+02
 1.9247509E+01  6.9289911E+02
 1.9268351E+01  6.9275989E+02
 1.9289192E+01  6.9283325E+02
 1.9310034E+01  6.9365442E+02
 1.9330875E+01  6.9469629E+02
 1.9351717E+01  6.9478040E+02
 1.9372561E+01  6.9564868E+02
 1.9393402E+01  6.9666449E+02
 1.9414244E+01  6.9721332E+02
 1.9435085E+01  6.9824432E+02
 1.9455927E+01  6.9875568E+02
 1.9476768E+01  6.9920459E+02
 1.9497612E+01  6.9885510E+02
 1.9518454E+01  6.9746844E+02
 1.9539295E+01  6.9670923E+02
 1.9560137E+01  6.9675293E+02
 1.9580978E+01  6.9638904E+02
 1.9601820E+01  6.9620062E+02
 1.9622663E+01  6.9630817E+02
 1.9643505E+01  6.9681604E+02
 1.9664347E+01  6.9755048E+02
 1.9685188E+01  6.9737262E+02
 1.9706030E+01  6.9691144E+02
 1.9726871E+01  6.9623163E+02
 1.9747715E+01  6.9585999E+02
 1.9768557E+01  6.9602771E+02
 1.9789398E+01  6.9560712E+02
 1.9810240E+01  6.9516992E+02
 1.9831081E+01  6.9437280E+02
 1.9851923E+01  6.9409320E+02
 1.9872766E+01  6.9414771E+02
 1.9893608E+01  6.9446539E+02
 1.9914450E+01  6.9414355E+02
 1.9935291E+01  6.9366687E+02
 1.9956133E+01  6.9353650E+02
 1.9976974E+01  6.9381140E+02
 1.9997818E+01  6.9473083E+02
 2.0018660E+01  6.9498071E+02
 2.0039501E+01  6.9477948E+02
 2.0060343E+01  6.9490173E+02
 2.0081184E+01  6.9589154E+02
 2.0102026E+01  6.9679175E+02
 2.0122869E+01  6.9679120E+02
 2.0143711E+01  6.9701678E+02
 2.0164553E+01  6.9703107E+02
 2.0185394E+01  6.9817377E+02
 2.0206236E+01  6.9961774E+02
 2.0227077E+01  7.0085583E+02
 2.0247921E+01  7.0213580E+02
 2.0268763E+01  7.0348676E+02
 2.0289604E+01  7.0487878E+02
 2.0310446E+01  7.0535492E+02
 2.0331287E+01  7.0625421E+02
 2.0352129E+01  7.0659503E+02
 2.0372972E+01  7.0734686E+02
 2.0393814E+01  7.0866382E+02
 2.0414656E+01  7.0953461E+02
 2.0435497E+01  7.0975592E+02
 2.0456339E+01  7.1032825E+02
 2.0477180E+01  7.1010474E+02
 2.0498024E+01  7.0952307E+02
 2.0518866E+01  7.0892053E+02
 2.0539707E+01  7.0889697E+02
 2.0560549E+01  7.0944824E+02
 2.0581390E+01  7.0965625E+02
 2.0602232E+01  7.1108228E+02
 2.0623075E+01  7.1318494E+02
 2.0643917E+01  7.1490778E+02
 2.0664759E+01  7.1599323E+02
 2.0685600E+01  7.1731982E+02
 2.0706442E+01  7.1932001E+02
 2.0727283E+01  7.2144958E+02
 2.0748127E+01  7.2339355E+02
 2.0768969E+01  7.2574701E+02
 2.0789810E+01  7.2742847E+02
 2.0810652E+01  7.2904596E+02
 2.0831493E+01  7.3116113E+02
 2.0852335E+01  7.3353961E+02
 2.0873178E+01  7.3499231E+02
 2.0894020E+01  7.3629572E+02
 2.0914862E+01  7.3723029E+02
 2.0935703E+01  7.3822876E+02
 2.0956545E+01  7.3791815E+02
 2.0977386E+01  7.3746368E+02
 2.0998230E+01  7.3786511E+02
 2.1019072E+01  7.3796112E+02
 2.1039913E+01  7.3836292E+02
 2.1060755E+01  7.3681775E+02
 2.1081596E+01  7.3648999E+02
 2.1102438E+01  7.3568219E+02
 2.1123281E+01  7.3514563E+02
 2.1144123E+01  7.3434747E+02
 2.1164965E+01  7.3387451E+02
 2.1185806E+01  7.3365027E+02
 2.1206648E+01  7.3348425E+02
 2.1227489E+01  7.3323566E+02
 2.1248333E+01  7.3361969E+02
 2.1269175E+01  7.3389850E+02
 2.1290016E+01  7.3364539E+02
 2.1310858E+01  7.3315753E+02
 2.1331699E+01  7.3295972E+02
 2.1352541E+01  7.3310632E+02
 2.1373384E+01  7.3331012E+02
 2.1394226E+01  7.3406696E+02
 2.1415068E+01  7.3478870E+02
 2.1435909E+01  7.3620514E+02
 2.1456751E+01  7.3783923E+02
 2.1477592E+01  7.3836212E+02
 2.1498436E+01  7.3737756E+02
 2.1519278E+01  7.3683557E+02
 2.1540119E+01  7.3753802E+02
 2.1560961E+01  7.3753644E+02
 2.1581802E+01  7.3755029E+02
 2.1602644E+01  7.3881128E+02
 2.1623486E+01  7.3981018E+02
 2.1644329E+01  7.4059985E+02
 2.1665171E+01  7.4149707E+02
 2.1686012E+01  7.4202435E+02
 2.1706854E+01  7.4302625E+02
 2.1727695E+01  7.4433154E+02
 2.1748537E+01  7.4579999E+02
 2.1769381E+01  7.4770520E+02
 2.1790222E+01  7.5028949E+02
 2.1811064E+01  7.5240729E+02
 2.1831905E+01  7.5518817E+02
 2.1852747E+01  7.5761255E+02
 2.1873589E+01  7.6102368E+02
 2.1894432E+01  7.6413031E+02
 2.1915274E+01  7.6851947E+02
 2.1936115E+01  7.7260901E+02
 2.1956957E+01  7.7697046E+02
 2.1977798E+01  7.8020807E+02
 2.1998640E+01  7.8206238E+02
 2.2019484E+01  7.8172668E+02
 2.2040325E+01  7.8102130E+02
 2.2061167E+01  7.7982678E+02
 2.2082008E+01  7.7897333E+02
 2.2102850E+01  7.7800336E+02
 2.2123692E+01  7.7720398E+02
 2.2144535E+01  7.7547595E+02
 2.2165377E+01  7.7570917E+02
 2.2186218E+01  7.7519458E+02
 2.2207060E+01  7.7426776E+02
 2.2227901E+01  7.7375940E+02
 2.2248743E+01  7.7383081E+02
 2.2269587E+01  7.5943079E+02
 2.2290428E+01  6.6882257E+02
 2.2311270E+01  5.4328113E+02
 2.2332111E+01  4.5421271E+02
 2.2352953E+01  3.7019769E+02
 2.2373795E+01  2.6049655E+02
 2.2394638E+01  1.0827495E+02
 2.2415480E+01  1.2265495E+01
 2.2436321E+01  0.0000000E+00
 2.2457163E+01  0.0000000E+00
 2.2478004E+01  0.0000000E+00
 2.2498846E+01  0.0000000E+00
 2.2519690E+01  0.0000000E+00
 2.2540531E+01  0.0000000E+00
 2.2561373E+01  0.0000000E+00
 2.2582214E+01  0.0000000E+00
 2.2603056E+01  0.0000000E+00
 2.2623898E+01  0.0000000E+00
 2.2644741E+01  0.0000000E+00
 2.2665583E+01  0.0000000E+00
 2.2686424E+01  0.0000000E+00
 2.2707266E+01  0.0000000E+00
 2.2728107E+01  0.0000000E+00
 2.2748949E+01  0.0000000E+00
 2.2769793E+01  0.0000000E+00
 2.2790634E+01  0.0000000E+00
 2.2811476E+01  0.0000000E+00
 2.2832317E+01  0.0000000E+00
 2.2853159E+01  0.0000000E+00
 2.2874001E+01  0.0000000E+00
 2.2894844E+01  0.0000000E+00
 2.2915686E+01  0.0000000E+00
 2.2936527E+01  0.0000000E+00
 2.2957369E+01  0.0000000E+00
 2.2978210E+01  0.0000000E+00
 2.2999052E+01  0.0000000E+00
 2.3019896E+01  0.0000000E+00
 2.3040737E+01  0.0000000E+00
 2.3061579E+01  0.0000000E+00
 2.3082420E+01  0.0000000E+00
 2.3103262E+01  0.0000000E+00
 2.3124104E+01  0.0000000E+00
 2.3144947E+01  0.0000000E+00
 2.3165789E+01  0.0000000E+00
 2.3186630E+01  0.0000000E+00
 2.3207472E+01  0.0000000E+00
 2.3228313E+01  0.0000000E+00
 2.3249155E+01  0.0000000E+00
 2.3269999E+01  0.0000000E+00
 2.3290840E+01  0.0000000E+00
 2.3311682E+01  0.0000000E+00
 2.3332523E+01  0.0000000E+00
 2.3353365E+01  0.0000000E+00
 2.3374207E+01  0.0000000E+00
 2.3395050E+01  0.0000000E+00
 2.3415892E+01  0.0000000E+00
 2.3436733E+01  0.0000000E+00
 2.3457575E+01  0.0000000E+00
 2.3478416E+01  0.0000000E+00
 2.3499258E+01  0.0000000E+00
 2.3520102E+01  0.0000000E+00
 2.3540943E+01  0.0000000E+00
 2.3561785E+01  0.0000000E+00
 2.3582626E+01  0.0000000E+00
 2.3603468E+01  0.0000000E+00
 2.3624310E+01  0.0000000E+00
 2.3645153E+01  0.0000000E+00
 2.3665995E+01  0.0000000E+00
 2.3686836E+01  0.0000000E+00
 2.3707678E+01  0.0000000E+00
 2.3728519E+01  0.0000000E+00
 2.3749361E+01  0.0000000E+00
 2.3770205E+01  0.0000000E+00
 2.3791046E+01  0.0000000E+00
 2.3811888E+01  0.0000000E+00
 2.3832729E+01  0.0000000E+00
 2.3853571E+01  0.0000000E+00
 2.3874413E+01  0.0000000E+00
 2.3895256E+01  0.0000000E+00
 2.3916098E+01  0.0000000E+00
 2.3936939E+01  0.0000000E+00
 2.3957781E+01  0.0000000E+00
 2.3978622E+01  0.0000000E+00
 2.3999464E+01  0.0000000E+00
 2.4020308E+01  0.0000000E+00
 2.4041149E+01  0.0000000E+00
 2.4061991E+01  0.0000000E+00
 2.4082832E+01  0.0000000E+00
 2.4103674E+01  0.0000000E+00
 2.4124516E+01  0.0000000E+00
 2.4145359E+01  0.0000000E+00
 2.4166201E+01  0.0000000E+00
 2.4187042E+01  0.0000000E+00
 2.4207884E+01  0.0000000E+00
 2.4228725E+01  0.0000000E+00
 2.4249567E+01  0.0000000E+00
 2.4270411E+01  0.0000000E+00
 2.4291252E+01  0.0000000E+00
 2.4312094E+01  0.0000000E+00
 2.4332935E+01  0.0000000E+00
 2.4353777E+01  0.0000000E+00
 2.4374619E+01  0.0000000E+00
 2.4395462E+01  0.0000000E+00
 2.4416304E+01  0.0000000E+00
 2.4437145E+01  0.0000000E+00
 2.4457987E+01  0.0000000E+00
 2.4478828E+01  0.0000000E+00
 2.4499670E+01  0.0000000E+00
 2.4520514E+01  0.0000000E+00
 2.4541355E+01  0.0000000E+00
 2.4562197E+01  0.0000000E+00
 2.4583038E+01  0.0000000E+00
 2.4603880E+01  0.0000000E+00
 2.4624722E+01  0.0000000E+00
 2.4645565E+01  0.0000000E+00
 2.4666407E+01  0.0000000E+00
 2.4687248E+01  0.0000000E+00
 2.4708090E+01  0.0000000E+00
 2.4728931E+01  0.0000000E+00
 2.4749773E+01  0.0000000E+00
 2.4770617E+01  0.0000000E+00
 2.4791458E+01  0.0000000E+00
 2.4812300E+01  0.0000000E+00
 2.4833141E+01  0.0000000E+00
 2.4853983E+01  0.0000000E+00
 2.4874825E+01  0.0000000E+00
 2.4895668E+01  0.0000000E+00
 2.4916510E+01  0.0000000E+00
 2.4937351E+01  0.0000000E+00
 2.4958193E+01  0.0000000E+00
 2.4979034E+01  0.0000000E+00
 2.4999876E+01  0.0000000E+00
 2.5020720E+01  0.0000000E+00
 2.5041561E+01  0.0000000E+00
 2.5062403E+01  0.0000000E+00
 2.5083244E+01  0.0000000E+00
 2.5104086E+01  0.0000000E+00
 2.5124928E+01  0.0000000E+00
 2.5145771E+01  0.0000000E+00
 2.5166613E+01  0.0000000E+00
 2.5187454E+01  0.0000000E+00
 2.5208296E+01  0.0000000E+00
 2.5229137E+01  0.0000000E+00
 2.5249979E+01  0.0000000E+00
 2.5270823E+01  0.0000000E+00
 2.5291664E+01  0.0000000E+00
 2.5312506E+01  0.0000000E+00
 2.5333347E+01  0.0000000E+00
 2.5354189E+01  0.0000000E+00
 2.5375031E+01  0.0000000E+00
 2.5395874E+01  0.0000000E+00
 2.5416716E+01  0.0000000E+00
 2.5437557E+01  0.0000000E+00
 2.5458399E+01  0.0000000E+00
 2.5479240E+01  0.0000000E+00
 2.5500082E+01  0.0000000E+00
 2.5520924E+01  0.0000000E+00
 2.5541767E+01  0.0000000E+00
 2.5562609E+01  0.0000000E+00
 2.5583450E+01  0.0000000E+00
 2.5604292E+01  0.0000000E+00
 2.5625134E+01  0.0000000E+00
 2.5645975E+01  0.0000000E+00
 2.5666819E+01  0.0000000E+00
 2.5687660E+01  0.0000000E+00
 2.5708502E+01  0.0000000E+00
 2.5729343E+01  0.0000000E+00
 2.5750185E+01  0.0000000E+00
 2.5771027E+01  0.0000000E+00
 2.5791870E+01  0.0000000E+00
 2.5812712E+01  0.0000000E+00
 2.5833553E+01  0.0000000E+00
 2.5854395E+01  0.0000000E+00
 2.5875237E+01  0.0000000E+00
 2.5896078E+01  0.0000000E+00
 2.5916922E+01  0.0000000E+00
 2.5937763E+01  0.0000000E+00
 2.5958605E+01  0.0000000E+00
 2.5979446E+01  0.0000000E+00
 2.6000288E+01  0.0000000E+00
 2.6021130E+01  0.0000000E+00
 2.6041973E+01  0.0000000E+00
 2.6062815E+01  0.0000000E+00
 2.6083656E+01  0.0000000E+00
 2.6104498E+01  0.0000000E+00
 2.6125340E+01  0.0000000E+00
 2.6146181E+01  0.0000000E+00
 2.6167025E+01  0.0000000E+00
 2.6187866E+01  0.0000000E+00
 2.6208708E+01  0.0000000E+00
 2.6229549E+01  0.0000000E+00
 2.6250391E+01  0.0000000E+00
 2.6271233E+01  0.0000000E+00
 2.6292076E+01  0.0000000E+00
 2.6312918E+01  0.0000000E+00
 2.6333759E+01  0.0000000E+00
 2.6354601E+01  0.0000000E+00
 2.6375443E+01  0.0000000E+00
 2.6396284E+01  0.0000000E+00
 2.6417128E+01  0.0000000E+00
 2.6437969E+01  0.0000000E+00
 2.6458811E+01  0.0000000E+00
 2.6479652E+01  0.0000000E+00
 2.6500494E+01  0.0000000E+00
 2.6521336E+01  0.0000000E+00
 2.6542179E+01  0.0000000E+00
 2.6563021E+01  0.0000000E+00
 2.6583862E+01  0.0000000E+00
 2.6604704E+01  0.0000000E+00
 2.6625546E+01  0.0000000E+00
 2.6646387E+01  0.0000000E+00
 2.6667231E+01  0.0000000E+00
 2.6688072E+01  0.0000000E+00
 2.6708914E+01  0.0000000E+00
 2.6729755E+01  0.0000000E+00
 2.6750597E+01  0.0000000E+00
 2.6771439E+01  0.0000000E+00
 2.6792282E+01  0.0000000E+00
 2.6813124E+01  0.0000000E+00
 2.6833965E+01  0.0000000E+00
 2.6854807E+01  0.0000000E+00
 2.6875648E+01  0.0000000E+00
 2.6896490E+01  0.0000000E+00
 2.6917334E+01  0.0000000E+00
 2.6938175E+01  0.0000000E+00
 2.6959017E+01  0.0000000E+00
 2.6979858E+01  0.0000000E+00
 2.7000700E+01  0.0000000E+00
 2.7021542E+01  0.0000000E+00
 2.7042385E+01  0.0000000E+00
 2.7063227E+01  0.0000000E+00
 2.7084068E+01  0.0000000E+00
 2.7104910E+01  0.0000000E+00
 2.7125751E+01  0.0000000E+00
 2.7146593E+01  0.0000000E+00
 2.7167437E+01  0.0000000E+00
 2.7188278E+01  0.0000000E+00
 2.7209120E+01  0.0000000E+00
 2.7229961E+01  0.0000000E+00
 2.7250803E+01  0.0000000E+00
 2.7271645E+01  0.0000000E+00
 2.7292488E+01  0.0000000E+00
 2.7313330E+01  0.0000000E+00
 2.7334171E+01  0.0000000E+00
 2.7355013E+01  0.0000000E+00
 2.7375854E+01  0.0000000E+00
 2.7396696E+01  0.0000000E+00
 2.7417540E+01  0.0000000E+00
 2.7438381E+01  0.0000000E+00
 2.7459223E+01  0.0000000E+00
 2.7480064E+01  0.0000000E+00
 2.7500906E+01  0.0000000E+00
 2.7521748E+01  0.0000000E+00
 2.7542591E+01  0.0000000E+00
 2.7563433E+01  0.0000000E+00
 2.7584274E+01  0.0000000E+00
 2.7605116E+01  0.0000000E+00
 2.7625957E+01  0.0000000E+00
 2.7646799E+01  0.0000000E+00
 2.7667643E+01  0.0000000E+00
 2.7688484E+01  0.0000000E+00
 2.7709326E+01  0.0000000E+00
 2.7730167E+01  0.0000000E+00
 2.7751009E+01  0.0000000E+00
 2.7771851E+01  0.0000000E+00
 2.7792694E+01  0.0000000E+00
 2.7813536E+01  0.0000000E+00
 2.7834377E+01  0.0000000E+00
 2.7855219E+01  0.0000000E+00
 2.7876060E+01  0.0000000E+00
 2.7896902E+01  0.0000000E+00
 2.7917746E+01  0.0000000E+00
 2.7938587E+01  0.0000000E+00
 2.7959429E+01  0.0000000E+00
 2.7980270E+01  0.0000000E+00
 2.8001112E+01  0.0000000E+00
 2.8021954E+01  0.0000000E+00
 2.8042797E+01  0.0000000E+00
 2.8063639E+01  0.0000000E+00
 2.8084480E+01  0.0000000E+00
 2.8105322E+01  0.0000000E+00
 2.8126163E+01  0.0000000E+00
 2.8147005E+01  0.0000000E+00
 2.8167849E+01  0.0000000E+00
 2.8188690E+01  0.0000000E+00
 2.8209532E+01  0.0000000E+00
 2.8230373E+01  0.0000000E+00
 2.8251215E+01  0.0000000E+00
 2.8272057E+01  0.0000000E+00
 2.8292900E+01  0.0000000E+00
 2.8313742E+01  0.0000000E+00
 2.8334583E+01  0.0000000E+00
 2.8355425E+01  0.0000000E+00
 2.8376266E+01  0.0000000E+00
 2.8397108E+01  0.0000000E+00
 2.8417952E+01  0.0000000E+00
 2.8438793E+01  0.0000000E+00
 2.8459635E+01  0.0000000E+00
 2.8480476E+01  0.0000000E+00
 2.8501318E+01  0.0000000E+00
 2.8522160E+01  0.0000000E+00
 2.8543003E+01  0.0000000E+00
 2.8563845E+01  0.0000000E+00
 2.8584686E+01  0.0000000E+00
 2.8605528E+01  0.0000000E+00
 2.8626369E+01  0.0000000E+00
 2.8647211E+01  0.0000000E+00
 2.8668055E+01  0.0000000E+00
 2.8688896E+01  0.0000000E+00
 2.8709738E+01  0.0000000E+00
 2.8730579E+01  0.0000000E+00
 2.8751421E+01  0.0000000E+00
 2.8772263E+01  0.0000000E+00
 2.8793106E+01  0.0000000E+00
 2.8813948E+01  0.0000000E+00
 2.8834789E+01  0.0000000E+00
 2.8855631E+01  0.0000000E+00
 2.8876472E+01  0.0000000E+00
 2.8897314E+01  0.0000000E+00
 2.8918158E+01  0.0000000E+00
 2.8938999E+01  0.0000000E+00
 2.8959841E+01  0.0000000E+00
 2.8980682E+01  0.0000000E+00
 2.9001524E+01  0.0000000E+00
 2.9022366E+01  0.0000000E+00
 2.9043209E+01  0.0000000E+00
 2.9064051E+01  0.0000000E+00
 2.9084892E+01  0.0000000E+00
 2.9105734E+01  0.0000000E+00
 2.9126575E+01  0.0000000E+00
 2.9147417E+01  0.0000000E+00
 2.9168261E+01  0.0000000E+00
 2.9189102E+01  0.0000000E+00
 2.9209944E+01  0.0000000E+00
 2.9230785E+01  0.0000000E+00
 2.9251627E+01  0.0000000E+00
 2.9272469E+01  0.0000000E+00
 2.9293312E+01  0.0000000E+00
 2.9314154E+01  0.0000000E+00
 2.9334995E+01  0.0000000E+00
 2.9355837E+01  0.0000000E+00
 2.9376678E+01  0.0000000E+00
 2.9397520E+01  0.0000000E+00
 2.9418362E+01  0.0000000E+00
 2.9439205E+01  0.0000000E+00
 2.9460047E+01  0.0000000E+00
 2.9480888E+01  0.0000000E+00
 2.9501730E+01  0.0000000E+00
 2.9522572E+01  0.0000000E+00
 2.9543413E+01  0.0000000E+00
 2.9564257E+01  0.0000000E+00
 2.9585098E+01  0.0000000E+00
 2.9605940E+01  0.0000000E+00
 2.9626781E+01  0.0000000E+00
 2.9647623E+01  0.0000000E+00
 2.9668465E+01  0.0000000E+00
 2.9689308E+01  0.0000000E+00
 2.9710150E+01  0.0000000E+00
 2.9730991E+01  0.0000000E+00
 2.9751833E+01  0.0000000E+00
 2.9772675E+01  0.0000000E+00
 2.9793516E+01  0.0000000E+00
 2.9814360E+01  0.0000000E+00
 2.9835201E+01  0.0000000E+00
 2.9856043E+01  0.0000000E+00
 2.9876884E+01  0.0000000E+00
 2.9897726E+01  0.0000000E+00
 2.9918568E+01  0.0000000E+00
 2.9939411E+01  0.0000000E+00
 2.9960253E+01  0.0000000E+00
 2.9981094E+01  0.0000000E+00
 3.0001936E+01  0.0000000E+00
 3.0022778E+01  0.0000000E+00
 3.0043619E+01  0.0000000E+00
 3.0064463E+01  0.0000000E+00
 3.0085304E+01  0.0000000E+00
 3.0106146E+01  0.0000000E+00
 3.0126987E+01  0.0000000E+00
 3.0147829E+01  0.0000000E+00
 3.0168671E+01  0.0000000E+00
 3.0189514E+01  0.0000000E+00
