# == pyFAI calibration ==
# SplineFile: None
# PixelSize: 1.720e-04, 1.720e-04 m
# PONI: 8.722e-02, 8.342e-02 m
# Distance Sample to Detector: 0.284634930882 m
# Rotations: -0.000251 0.000603 -0.000000 rad
# 
# == Fit2d calibration ==
# Distance Sample-beamCenter: 284.635 mm
# Center: x=485.389, y=508.119 pix
# Tilt: 0.037 deg  TiltPlanRot: 67.409 deg
# 
# Wavelength: 3.344e-11
# Polarization factor: 0.99
# Normalization factor: None
#
# 2th_deg	 I
7.882808091E-03  1.330026245E+02
2.364842239E-02  1.479436188E+02
3.941403669E-02  1.506953583E+02
5.517965100E-02  1.378603516E+02
7.094526530E-02  1.135217819E+02
8.671087960E-02  1.030869751E+02
1.024764939E-01  9.301018524E+01
1.182421082E-01  9.231353760E+01
1.340077225E-01  8.459040070E+01
1.497733368E-01  8.543703461E+01
1.655389511E-01  7.902071381E+01
1.813045654E-01  8.174825287E+01
1.970701797E-01  7.779605865E+01
2.128357940E-01  8.082952118E+01
2.286014083E-01  7.900720215E+01
2.443670226E-01  7.907909393E+01
2.601326369E-01  7.709119415E+01
2.758982512E-01  7.562055969E+01
2.916638655E-01  7.648722839E+01
3.074294798E-01  8.773764801E+01
3.231950941E-01  9.640066528E+01
3.389607084E-01  9.945283508E+01
3.547263227E-01  1.001748581E+02
3.704919370E-01  1.020561447E+02
3.862575513E-01  1.048507309E+02
4.020231656E-01  1.055973816E+02
4.177887799E-01  1.085485992E+02
4.335543942E-01  1.105071487E+02
4.493200085E-01  1.126853409E+02
4.650856228E-01  1.131997604E+02
4.808512371E-01  1.142828217E+02
4.966168514E-01  1.145131607E+02
5.123824657E-01  1.162366333E+02
5.281480800E-01  1.153972397E+02
5.439136943E-01  1.171714630E+02
5.596793086E-01  1.170460281E+02
5.754449229E-01  1.196668930E+02
5.912105372E-01  1.184808121E+02
6.069761516E-01  1.183052826E+02
6.227417659E-01  1.173460922E+02
6.385073802E-01  1.184855194E+02
6.542729945E-01  1.204058151E+02
6.700386088E-01  1.207421875E+02
6.858042231E-01  1.219171295E+02
7.015698374E-01  1.211355209E+02
7.173354517E-01  1.219997711E+02
7.331010660E-01  1.222751923E+02
7.488666803E-01  1.232188644E+02
7.646322946E-01  1.234711685E+02
7.803979089E-01  1.229150467E+02
7.961635232E-01  1.232081070E+02
8.119291375E-01  1.228876266E+02
8.276947518E-01  1.237919235E+02
8.434603661E-01  1.242436371E+02
8.592259804E-01  1.267600174E+02
8.749915947E-01  1.272446594E+02
8.907572090E-01  1.282552643E+02
9.065228233E-01  1.266610870E+02
9.222884376E-01  1.259376450E+02
9.380540519E-01  1.251428833E+02
9.538196662E-01  1.265464325E+02
9.695852805E-01  1.265098801E+02
9.853508948E-01  1.277256775E+02
1.001116509E+00  1.284991455E+02
1.016882123E+00  1.285141144E+02
1.032647738E+00  1.283145447E+02
1.048413352E+00  1.284029999E+02
1.064178966E+00  1.290388641E+02
1.079944581E+00  1.291052856E+02
1.095710195E+00  1.293336029E+02
1.111475809E+00  1.286052246E+02
1.127241424E+00  1.302294006E+02
1.143007038E+00  1.320716705E+02
1.158772652E+00  1.336638031E+02
1.174538266E+00  1.337603455E+02
1.190303881E+00  1.336029816E+02
1.206069495E+00  1.338017273E+02
1.221835109E+00  1.341443024E+02
1.237600724E+00  1.343856659E+02
1.253366338E+00  1.354817200E+02
1.269131952E+00  1.370944977E+02
1.284897567E+00  1.394080048E+02
1.300663181E+00  1.435143280E+02
1.316428795E+00  1.513165283E+02
1.332194409E+00  1.668785095E+02
1.347960024E+00  2.057444916E+02
1.363725638E+00  2.836899719E+02
1.379491252E+00  3.904962158E+02
1.395256867E+00  5.322388306E+02
1.411022481E+00  6.787023315E+02
1.426788095E+00  8.105359497E+02
1.442553710E+00  9.462263794E+02
1.458319324E+00  1.057515991E+03
1.474084938E+00  1.193284424E+03
1.489850552E+00  1.302223999E+03
1.505616167E+00  1.434784668E+03
1.521381781E+00  1.574041626E+03
1.537147395E+00  1.689121338E+03
1.552913010E+00  1.815114990E+03
1.568678624E+00  1.923737915E+03
1.584444238E+00  2.054252930E+03
1.600209853E+00  2.177479004E+03
1.615975467E+00  2.329903809E+03
1.631741081E+00  2.473051025E+03
1.647506695E+00  2.608861084E+03
1.663272310E+00  2.738817871E+03
1.679037924E+00  2.887043213E+03
1.694803538E+00  3.046774902E+03
1.710569153E+00  3.225758057E+03
1.726334767E+00  3.396070068E+03
1.742100381E+00  3.583520508E+03
1.757865996E+00  3.746670166E+03
1.773631610E+00  3.932999512E+03
1.789397224E+00  4.144129883E+03
1.805162838E+00  4.336099121E+03
1.820928453E+00  4.501064941E+03
1.836694067E+00  4.654929199E+03
1.852459681E+00  4.789557617E+03
1.868225296E+00  4.921310059E+03
1.883990910E+00  5.033245117E+03
1.899756524E+00  5.162245117E+03
1.915522139E+00  5.271697754E+03
1.931287753E+00  5.376327148E+03
1.947053367E+00  5.438501953E+03
1.962818981E+00  5.543919434E+03
1.978584596E+00  5.658186523E+03
1.994350210E+00  5.776489258E+03
2.010115824E+00  5.849516113E+03
2.025881439E+00  5.952358887E+03
2.041647053E+00  6.057866699E+03
2.057412667E+00  6.130888672E+03
2.073178282E+00  6.221603027E+03
2.088943896E+00  6.288479492E+03
2.104709510E+00  6.392543945E+03
2.120475125E+00  6.457206055E+03
2.136240739E+00  6.547461914E+03
2.152006353E+00  6.621044434E+03
2.167771967E+00  6.725626953E+03
2.183537582E+00  6.796318848E+03
2.199303196E+00  6.871728516E+03
2.215068810E+00  6.925115723E+03
2.230834425E+00  6.975024902E+03
2.246600039E+00  7.049820312E+03
2.262365653E+00  7.115584961E+03
2.278131268E+00  7.227650879E+03
2.293896882E+00  7.283437500E+03
2.309662496E+00  7.374526855E+03
2.325428110E+00  7.412013672E+03
2.341193725E+00  7.490636719E+03
2.356959339E+00  7.521664062E+03
2.372724953E+00  7.593211426E+03
2.388490568E+00  7.670314941E+03
2.404256182E+00  7.733357910E+03
2.420021796E+00  7.799884766E+03
2.435787411E+00  7.820144043E+03
2.451553025E+00  7.893046387E+03
2.467318639E+00  7.928688477E+03
2.483084253E+00  8.001916016E+03
2.498849868E+00  8.039329102E+03
2.514615482E+00  8.106592773E+03
2.530381096E+00  8.137668945E+03
2.546146711E+00  8.174316406E+03
2.561912325E+00  8.193741211E+03
2.577677939E+00  8.238632812E+03
2.593443554E+00  8.300026367E+03
2.609209168E+00  8.364393555E+03
2.624974782E+00  8.439793945E+03
2.640740396E+00  8.472132812E+03
2.656506011E+00  8.526586914E+03
2.672271625E+00  8.541491211E+03
2.688037239E+00  8.594451172E+03
2.703802854E+00  8.596630859E+03
2.719568468E+00  8.645543945E+03
2.735334082E+00  8.664595703E+03
2.751099697E+00  8.720351562E+03
2.766865311E+00  8.751963867E+03
2.782630925E+00  8.796739258E+03
2.798396539E+00  8.833418945E+03
2.814162154E+00  8.852149414E+03
2.829927768E+00  8.875999023E+03
2.845693382E+00  8.874272461E+03
2.861458997E+00  8.940875977E+03
2.877224611E+00  8.964000977E+03
2.892990225E+00  9.021474609E+03
2.908755840E+00  8.990839844E+03
2.924521454E+00  8.894713867E+03
2.940287068E+00  8.783168945E+03
2.956052682E+00  8.704166016E+03
2.971818297E+00  8.642323242E+03
2.987583911E+00  8.587205078E+03
3.003349525E+00  8.566941406E+03
3.019115140E+00  8.522121094E+03
3.034880754E+00  8.498396484E+03
3.050646368E+00  8.446735352E+03
3.066411983E+00  8.432191406E+03
3.082177597E+00  8.391490234E+03
3.097943211E+00  8.400174805E+03
3.113708825E+00  8.379093750E+03
3.129474440E+00  8.358841797E+03
3.145240054E+00  8.333556641E+03
3.161005668E+00  8.299486328E+03
3.176771283E+00  8.288815430E+03
3.192536897E+00  8.256578125E+03
3.208302511E+00  8.253688477E+03
3.224068126E+00  8.231020508E+03
3.239833740E+00  8.237546875E+03
3.255599354E+00  8.209825195E+03
3.271364969E+00  8.204702148E+03
3.287130583E+00  8.161712891E+03
3.302896197E+00  8.161162109E+03
3.318661811E+00  8.149722168E+03
3.334427426E+00  8.147342285E+03
3.350193040E+00  8.148465332E+03
3.365958654E+00  8.128993164E+03
3.381724269E+00  8.141428223E+03
3.397489883E+00  8.121377441E+03
3.413255497E+00  8.118713867E+03
3.429021112E+00  8.110533691E+03
3.444786726E+00  8.125016113E+03
3.460552340E+00  8.095404297E+03
3.476317954E+00  8.065633301E+03
3.492083569E+00  8.051340820E+03
3.507849183E+00  8.195708984E+03
3.523614797E+00  8.318797852E+03
3.539380412E+00  8.425229492E+03
3.555146026E+00  8.522679688E+03
3.570911640E+00  8.578309570E+03
3.586677255E+00  8.659992188E+03
3.602442869E+00  8.681322266E+03
3.618208483E+00  8.745938477E+03
3.633974097E+00  8.767237305E+03
3.649739712E+00  8.834716797E+03
3.665505326E+00  8.868718750E+03
3.681270940E+00  8.932123047E+03
3.697036555E+00  8.947466797E+03
3.712802169E+00  8.984458984E+03
3.728567783E+00  9.048165039E+03
3.744333398E+00  9.099071289E+03
3.760099012E+00  9.134126953E+03
3.775864626E+00  9.144870117E+03
3.791630240E+00  9.186015625E+03
3.807395855E+00  9.201440430E+03
3.823161469E+00  9.226439453E+03
3.838927083E+00  9.112481445E+03
3.854692698E+00  9.021386719E+03
3.870458312E+00  8.935893555E+03
3.886223926E+00  8.879762695E+03
3.901989541E+00  8.834427734E+03
3.917755155E+00  8.780905273E+03
3.933520769E+00  8.747138672E+03
3.949286383E+00  8.707101562E+03
3.965051998E+00  8.689734375E+03
3.980817612E+00  8.642060547E+03
3.996583226E+00  8.642027344E+03
4.012348841E+00  8.583630859E+03
4.028114455E+00  8.550206055E+03
4.043880069E+00  8.519325195E+03
4.059645684E+00  8.515452148E+03
4.075411298E+00  8.505590820E+03
4.091176912E+00  8.485537109E+03
4.106942526E+00  8.484037109E+03
4.122708141E+00  8.459510742E+03
4.138473755E+00  8.451138672E+03
4.154239369E+00  8.418901367E+03
4.170004984E+00  8.437294922E+03
4.185770598E+00  8.404827148E+03
4.201536212E+00  8.390893555E+03
4.217301827E+00  8.352160156E+03
4.233067441E+00  8.335987305E+03
4.248833055E+00  8.321422852E+03
4.264598670E+00  8.308925781E+03
4.280364284E+00  8.295808594E+03
4.296129898E+00  8.284844727E+03
4.311895512E+00  8.284932617E+03
4.327661127E+00  8.253625977E+03
4.343426741E+00  8.263038086E+03
4.359192355E+00  8.233993164E+03
4.374957970E+00  8.239749023E+03
4.390723584E+00  8.215710938E+03
4.406489198E+00  8.204634766E+03
4.422254813E+00  8.279894531E+03
4.438020427E+00  8.441466797E+03
4.453786041E+00  8.556402344E+03
4.469551655E+00  8.660406250E+03
4.485317270E+00  8.720732422E+03
4.501082884E+00  8.779235352E+03
4.516848498E+00  8.832143555E+03
4.532614113E+00  8.860196289E+03
4.548379727E+00  8.904449219E+03
4.564145341E+00  8.911328125E+03
4.579910956E+00  8.959460938E+03
4.595676570E+00  8.973670898E+03
4.611442184E+00  9.000773438E+03
4.627207798E+00  9.037032227E+03
4.642973413E+00  9.073958984E+03
4.658739027E+00  9.107618164E+03
4.674504641E+00  9.130983398E+03
4.690270256E+00  9.159793945E+03
4.706035870E+00  9.172444336E+03
4.721801484E+00  9.211502930E+03
4.737567099E+00  9.234282227E+03
4.753332713E+00  9.252726562E+03
4.769098327E+00  9.278498047E+03
4.784863941E+00  9.297953125E+03
4.800629556E+00  9.309149414E+03
4.816395170E+00  9.330493164E+03
4.832160784E+00  9.361565430E+03
4.847926399E+00  9.399117188E+03
4.863692013E+00  9.418545898E+03
4.879457627E+00  9.438599609E+03
4.895223242E+00  9.471874023E+03
4.910988856E+00  9.493244141E+03
4.926754470E+00  9.517167969E+03
4.942520084E+00  9.508631836E+03
4.958285699E+00  9.553135742E+03
4.974051313E+00  9.562125977E+03
4.989816927E+00  9.598358398E+03
5.005582542E+00  9.624542969E+03
5.021348156E+00  9.652321289E+03
5.037113770E+00  9.649286133E+03
5.052879385E+00  9.653552734E+03
5.068644999E+00  9.662436523E+03
5.084410613E+00  9.663387695E+03
5.100176227E+00  9.702835938E+03
5.115941842E+00  9.717293945E+03
5.131707456E+00  9.751013672E+03
5.147473070E+00  9.776340820E+03
5.163238685E+00  9.795492188E+03
5.179004299E+00  9.790593750E+03
5.194769913E+00  9.794282227E+03
5.210535528E+00  9.823650391E+03
5.226301142E+00  9.841605469E+03
5.242066756E+00  9.866916016E+03
5.257832371E+00  9.878734375E+03
5.273597985E+00  9.899773438E+03
5.289363599E+00  9.909381836E+03
5.305129213E+00  9.940281250E+03
5.320894828E+00  9.941481445E+03
5.336660442E+00  9.965351562E+03
5.352426056E+00  9.998176758E+03
5.368191671E+00  1.003185938E+04
5.383957285E+00  1.005174219E+04
5.399722899E+00  1.005344824E+04
5.415488514E+00  1.006337207E+04
5.431254128E+00  1.005804102E+04
5.447019742E+00  1.007083496E+04
5.462785356E+00  1.009062891E+04
5.478550971E+00  1.011603613E+04
5.494316585E+00  1.013206738E+04
5.510082199E+00  1.015283301E+04
5.525847814E+00  1.015870996E+04
5.541613428E+00  1.018621094E+04
5.557379042E+00  1.018647168E+04
5.573144657E+00  1.021423438E+04
5.588910271E+00  1.022087695E+04
5.604675885E+00  1.024759473E+04
5.620441499E+00  1.026608301E+04
5.636207114E+00  1.026234766E+04
5.651972728E+00  1.027071973E+04
5.667738342E+00  1.028704883E+04
5.683503957E+00  1.031381348E+04
5.699269571E+00  1.032004004E+04
5.715035185E+00  1.034003613E+04
5.730800800E+00  1.035126953E+04
5.746566414E+00  1.036931445E+04
5.762332028E+00  1.038516211E+04
5.778097642E+00  1.040348340E+04
5.793863257E+00  1.043550684E+04
5.809628871E+00  1.043803906E+04
5.825394485E+00  1.046163672E+04
5.841160100E+00  1.048910938E+04
5.856925714E+00  1.051686230E+04
5.872691328E+00  1.051246680E+04
5.888456943E+00  1.052604102E+04
5.904222557E+00  1.053470605E+04
5.919988171E+00  1.056139258E+04
5.935753785E+00  1.056453809E+04
5.951519400E+00  1.061700977E+04
5.967285014E+00  1.062886035E+04
5.983050628E+00  1.064875195E+04
5.998816243E+00  1.067184961E+04
6.014581857E+00  1.071176562E+04
6.030347471E+00  1.073612207E+04
6.046113086E+00  1.074325098E+04
6.061878700E+00  1.077890234E+04
6.077644314E+00  1.078754004E+04
6.093409928E+00  1.083387305E+04
6.109175543E+00  1.082499902E+04
6.124941157E+00  1.083894238E+04
6.140706771E+00  1.082760547E+04
6.156472386E+00  1.084998926E+04
6.172238000E+00  1.085085645E+04
6.188003614E+00  1.086614355E+04
6.203769229E+00  1.087136426E+04
6.219534843E+00  1.089026367E+04
6.235300457E+00  1.092653711E+04
6.251066072E+00  1.093591602E+04
6.266831686E+00  1.095888867E+04
6.282597300E+00  1.097755273E+04
6.298362914E+00  1.101401855E+04
6.314128529E+00  1.101898535E+04
6.329894143E+00  1.105025098E+04
6.345659757E+00  1.103729980E+04
6.361425372E+00  1.106354492E+04
6.377190986E+00  1.105491504E+04
6.392956600E+00  1.107712695E+04
6.408722215E+00  1.111664746E+04
6.424487829E+00  1.115226953E+04
6.440253443E+00  1.117101074E+04
6.456019057E+00  1.118335449E+04
6.471784672E+00  1.120524219E+04
6.487550286E+00  1.123099902E+04
6.503315900E+00  1.124589258E+04
6.519081515E+00  1.124406836E+04
6.534847129E+00  1.123759766E+04
6.550612743E+00  1.126912598E+04
6.566378358E+00  1.126889258E+04
6.582143972E+00  1.129927539E+04
6.597909586E+00  1.131016113E+04
6.613675200E+00  1.133071875E+04
6.629440815E+00  1.133195410E+04
6.645206429E+00  1.132760352E+04
6.660972043E+00  1.134295215E+04
6.676737658E+00  1.134315234E+04
6.692503272E+00  1.137626758E+04
6.708268886E+00  1.140643359E+04
6.724034501E+00  1.142540332E+04
6.739800115E+00  1.144302734E+04
6.755565729E+00  1.145536523E+04
6.771331343E+00  1.149555469E+04
6.787096958E+00  1.153272363E+04
6.802862572E+00  1.155814258E+04
6.818628186E+00  1.154947266E+04
6.834393801E+00  1.157475391E+04
6.850159415E+00  1.159110059E+04
6.865925029E+00  1.164284570E+04
6.881690644E+00  1.168305859E+04
6.897456258E+00  1.169474902E+04
6.913221872E+00  1.171190918E+04
6.928987486E+00  1.172796973E+04
6.944753101E+00  1.176769531E+04
6.960518715E+00  1.176352051E+04
6.976284329E+00  1.178495117E+04
6.992049944E+00  1.179318555E+04
7.007815558E+00  1.184355371E+04
7.023581172E+00  1.188282422E+04
7.039346787E+00  1.193158008E+04
7.055112401E+00  1.195260059E+04
7.070878015E+00  1.197849707E+04
7.086643629E+00  1.200366797E+04
7.102409244E+00  1.203814844E+04
7.118174858E+00  1.207695215E+04
7.133940472E+00  1.211172852E+04
7.149706087E+00  1.214515918E+04
7.165471701E+00  1.215069238E+04
7.181237315E+00  1.215313086E+04
7.197002930E+00  1.217085254E+04
7.212768544E+00  1.219207422E+04
7.228534158E+00  1.221367188E+04
7.244299773E+00  1.220994727E+04
7.260065387E+00  1.222263086E+04
7.275831001E+00  1.222172656E+04
7.291596615E+00  1.225168262E+04
7.307362230E+00  1.224489355E+04
7.323127844E+00  1.226540820E+04
7.338893458E+00  1.226794922E+04
7.354659073E+00  1.229881348E+04
7.370424687E+00  1.232018945E+04
7.386190301E+00  1.233945020E+04
7.401955916E+00  1.237637695E+04
7.417721530E+00  1.237370508E+04
7.433487144E+00  1.236093652E+04
7.449252758E+00  1.237902246E+04
7.465018373E+00  1.242949121E+04
7.480783987E+00  1.247453906E+04
7.496549601E+00  1.250979688E+04
7.512315216E+00  1.254701953E+04
7.528080830E+00  1.258283203E+04
7.543846444E+00  1.263587305E+04
7.559612059E+00  1.270343262E+04
7.575377673E+00  1.275982812E+04
7.591143287E+00  1.282871289E+04
7.606908901E+00  1.288407715E+04
7.622674516E+00  1.294283105E+04
7.638440130E+00  1.301005859E+04
7.654205744E+00  1.305909961E+04
7.669971359E+00  1.310922070E+04
7.685736973E+00  1.313195117E+04
7.701502587E+00  1.315191992E+04
7.717268202E+00  1.314582031E+04
7.733033816E+00  1.315952148E+04
7.748799430E+00  1.315932422E+04
7.764565044E+00  1.319804199E+04
7.780330659E+00  1.320111133E+04
7.796096273E+00  1.323561621E+04
7.811861887E+00  1.325370117E+04
7.827627502E+00  1.330221094E+04
7.843393116E+00  1.335095410E+04
7.859158730E+00  1.338098438E+04
7.874924345E+00  1.342450977E+04
7.890689959E+00  1.346191016E+04
7.906455573E+00  1.351070801E+04
7.922221187E+00  1.357566602E+04
7.937986802E+00  1.362833691E+04
7.953752416E+00  1.368614160E+04
7.969518030E+00  1.377518555E+04
7.985283645E+00  1.388449805E+04
8.001049259E+00  1.399654590E+04
8.016814873E+00  1.409134863E+04
8.032580488E+00  1.418213965E+04
8.048346102E+00  1.425836133E+04
8.064111716E+00  1.433632715E+04
8.079877330E+00  1.442527148E+04
8.095642945E+00  1.450063379E+04
8.111408559E+00  1.456444629E+04
8.127174173E+00  1.463766211E+04
8.142939788E+00  1.471864160E+04
8.158705402E+00  1.476482812E+04
8.174471016E+00  1.480963379E+04
8.190236631E+00  1.483008789E+04
8.206002245E+00  1.483608398E+04
8.221767859E+00  1.476462109E+04
8.237533474E+00  1.470247461E+04
8.253299088E+00  1.461241602E+04
8.269064702E+00  1.452003223E+04
8.284830316E+00  1.438666113E+04
8.300595931E+00  1.419625293E+04
8.316361545E+00  1.390149902E+04
8.332127159E+00  1.380087402E+04
8.347892774E+00  1.389643262E+04
8.363658388E+00  1.392458203E+04
8.379424002E+00  1.392543750E+04
8.395189617E+00  1.390831738E+04
8.410955231E+00  1.391048438E+04
8.426720845E+00  1.391390137E+04
8.442486459E+00  1.394804590E+04
8.458252074E+00  1.395124023E+04
8.474017688E+00  1.397385938E+04
8.489783302E+00  1.396280957E+04
8.505548917E+00  1.397986133E+04
8.521314531E+00  1.400249609E+04
8.537080145E+00  1.401466797E+04
8.552845760E+00  1.403862305E+04
8.568611374E+00  1.408424902E+04
8.584376988E+00  1.413388086E+04
8.600142602E+00  1.417512891E+04
8.615908217E+00  1.421983496E+04
8.631673831E+00  1.423752246E+04
8.647439445E+00  1.415594531E+04
8.663205060E+00  1.395296191E+04
8.678970674E+00  1.395996582E+04
8.694736288E+00  1.409768262E+04
8.710501903E+00  1.417402246E+04
8.726267517E+00  1.420505566E+04
8.742033131E+00  1.424557910E+04
8.757798745E+00  1.426448145E+04
8.773564360E+00  1.428726270E+04
8.789329974E+00  1.431939258E+04
8.805095588E+00  1.438242090E+04
8.820861203E+00  1.441729297E+04
8.836626817E+00  1.444663770E+04
8.852392431E+00  1.446867383E+04
8.868158046E+00  1.449353516E+04
8.883923660E+00  1.450757422E+04
8.899689274E+00  1.452971680E+04
8.915454888E+00  1.457764160E+04
8.931220503E+00  1.459864355E+04
8.946986117E+00  1.460675977E+04
8.962751731E+00  1.460648535E+04
8.978517346E+00  1.459329004E+04
8.994282960E+00  1.457177441E+04
9.010048574E+00  1.454885352E+04
9.025814189E+00  1.454965918E+04
9.041579803E+00  1.452236719E+04
9.057345417E+00  1.451720605E+04
9.073111031E+00  1.449327539E+04
9.088876646E+00  1.450881445E+04
9.104642260E+00  1.449237891E+04
9.120407874E+00  1.452281641E+04
9.136173489E+00  1.452055664E+04
9.151939103E+00  1.452254492E+04
9.167704717E+00  1.450101270E+04
9.183470332E+00  1.450935449E+04
9.199235946E+00  1.451774316E+04
9.215001560E+00  1.453859277E+04
9.230767175E+00  1.455603027E+04
9.246532789E+00  1.458238086E+04
9.262298403E+00  1.459192285E+04
9.278064017E+00  1.458792676E+04
9.293829632E+00  1.459988867E+04
9.309595246E+00  1.460929395E+04
9.325360860E+00  1.462032812E+04
9.341126475E+00  1.460206250E+04
9.356892089E+00  1.461316211E+04
9.372657703E+00  1.458698242E+04
9.388423318E+00  1.459088672E+04
9.404188932E+00  1.458592969E+04
9.419954546E+00  1.459854883E+04
9.435720160E+00  1.461272559E+04
9.451485775E+00  1.464973438E+04
9.467251389E+00  1.467879785E+04
9.483017003E+00  1.469852539E+04
9.498782618E+00  1.471064258E+04
9.514548232E+00  1.472019727E+04
9.530313846E+00  1.474922461E+04
9.546079461E+00  1.477391992E+04
9.561845075E+00  1.479978027E+04
9.577610689E+00  1.482483105E+04
9.593376303E+00  1.484961914E+04
9.609141918E+00  1.487378906E+04
9.624907532E+00  1.487856055E+04
9.640673146E+00  1.488039453E+04
9.656438761E+00  1.489429785E+04
9.672204375E+00  1.492529004E+04
9.687969989E+00  1.495267969E+04
9.703735604E+00  1.498574609E+04
9.719501218E+00  1.500822559E+04
9.735266832E+00  1.505025000E+04
9.751032446E+00  1.508765430E+04
9.766798061E+00  1.513679004E+04
9.782563675E+00  1.515420410E+04
9.798329289E+00  1.516905078E+04
9.814094904E+00  1.519722754E+04
9.829860518E+00  1.524972461E+04
9.845626132E+00  1.527675488E+04
9.861391747E+00  1.529599316E+04
9.877157361E+00  1.530470410E+04
9.892922975E+00  1.531310352E+04
9.908688589E+00  1.530896582E+04
9.924454204E+00  1.532008984E+04
9.940219818E+00  1.531587598E+04
9.955985432E+00  1.532956641E+04
9.971751047E+00  1.535091504E+04
9.987516661E+00  1.536659375E+04
1.000328228E+01  1.540301758E+04
1.001904789E+01  1.545839355E+04
1.003481350E+01  1.550129883E+04
1.005057912E+01  1.553368555E+04
1.006634473E+01  1.557904688E+04
1.008211035E+01  1.560465527E+04
1.009787596E+01  1.563478516E+04
1.011364158E+01  1.563907324E+04
1.012940719E+01  1.565532910E+04
1.014517280E+01  1.560803125E+04
1.016093842E+01  1.546286426E+04
1.017670403E+01  1.533988379E+04
1.019246965E+01  1.527588574E+04
1.020823526E+01  1.521563184E+04
1.022400088E+01  1.516473047E+04
1.023976649E+01  1.509854980E+04
1.025553210E+01  1.504086035E+04
1.027129772E+01  1.499617969E+04
1.028706333E+01  1.499452637E+04
1.030282895E+01  1.498068457E+04
1.031859456E+01  1.499113867E+04
1.033436018E+01  1.497233301E+04
1.035012579E+01  1.497939062E+04
1.036589140E+01  1.496236426E+04
1.038165702E+01  1.498694531E+04
1.039742263E+01  1.498179980E+04
1.041318825E+01  1.499217871E+04
1.042895386E+01  1.494591797E+04
1.044471948E+01  1.491933398E+04
1.046048509E+01  1.484450684E+04
1.047625070E+01  1.483124414E+04
1.049201632E+01  1.476686133E+04
1.050778193E+01  1.476805762E+04
1.052354755E+01  1.472276660E+04
1.053931316E+01  1.471445117E+04
1.055507878E+01  1.464158398E+04
1.057084439E+01  1.461409570E+04
1.058661000E+01  1.457079102E+04
1.060237562E+01  1.458624121E+04
1.061814123E+01  1.457996094E+04
1.063390685E+01  1.455882910E+04
1.064967246E+01  1.452254883E+04
1.066543808E+01  1.450104492E+04
1.068120369E+01  1.448604590E+04
1.069696930E+01  1.447356641E+04
1.071273492E+01  1.448164746E+04
1.072850053E+01  1.465422266E+04
1.074426615E+01  1.475917578E+04
1.076003176E+01  1.485579297E+04
1.077579738E+01  1.489897754E+04
1.079156299E+01  1.496598242E+04
1.080732860E+01  1.500553418E+04
1.082309422E+01  1.508049902E+04
1.083885983E+01  1.514939941E+04
1.085462545E+01  1.520549609E+04
1.087039106E+01  1.525050000E+04
1.088615668E+01  1.530870312E+04
1.090192229E+01  1.535245117E+04
1.091768790E+01  1.539434668E+04
1.093345352E+01  1.543893359E+04
1.094921913E+01  1.548104395E+04
1.096498475E+01  1.551708105E+04
1.098075036E+01  1.557688281E+04
1.099651598E+01  1.564332520E+04
1.101228159E+01  1.569131348E+04
1.102804720E+01  1.572174219E+04
1.104381282E+01  1.563729688E+04
1.105957843E+01  1.550206836E+04
1.107534405E+01  1.543709668E+04
1.109110966E+01  1.537169043E+04
1.110687528E+01  1.531541016E+04
1.112264089E+01  1.525696191E+04
1.113840650E+01  1.523639746E+04
1.115417212E+01  1.519930176E+04
1.116993773E+01  1.515739355E+04
1.118570335E+01  1.508254492E+04
1.120146896E+01  1.504409082E+04
1.121723458E+01  1.499241113E+04
1.123300019E+01  1.498151172E+04
1.124876581E+01  1.491262402E+04
1.126453142E+01  1.489847363E+04
1.128029703E+01  1.484541113E+04
1.129606265E+01  1.485546680E+04
1.131182826E+01  1.483128906E+04
1.132759388E+01  1.485636426E+04
1.134335949E+01  1.484527930E+04
1.135912511E+01  1.488327930E+04
1.137489072E+01  1.491755664E+04
1.139065633E+01  1.499391504E+04
1.140642195E+01  1.510570605E+04
1.142218756E+01  1.535151660E+04
1.143795318E+01  1.571855371E+04
1.145371879E+01  1.612018848E+04
1.146948441E+01  1.644139258E+04
1.148525002E+01  1.645284570E+04
1.150101563E+01  1.617118066E+04
1.151678125E+01  1.573892090E+04
1.153254686E+01  1.536733105E+04
1.154831248E+01  1.510101562E+04
1.156407809E+01  1.494087500E+04
1.157984371E+01  1.481240820E+04
1.159560932E+01  1.472350098E+04
1.161137493E+01  1.477449219E+04
1.162714055E+01  1.489035059E+04
1.164290616E+01  1.496855566E+04
1.165867178E+01  1.504525781E+04
1.167443739E+01  1.511866602E+04
1.169020301E+01  1.518942578E+04
1.170596862E+01  1.524965234E+04
1.172173423E+01  1.531615820E+04
1.173749985E+01  1.533938770E+04
1.175326546E+01  1.534637891E+04
1.176903108E+01  1.535193652E+04
1.178479669E+01  1.536262891E+04
1.180056231E+01  1.537280273E+04
1.181632792E+01  1.538806543E+04
1.183209353E+01  1.540641602E+04
1.184785915E+01  1.543755469E+04
1.186362476E+01  1.546742578E+04
1.187939038E+01  1.549625781E+04
1.189515599E+01  1.553509473E+04
1.191092161E+01  1.554818262E+04
1.192668722E+01  1.557939062E+04
1.194245283E+01  1.560817969E+04
1.195821845E+01  1.563137207E+04
1.197398406E+01  1.565149414E+04
1.198974968E+01  1.571085156E+04
1.200551529E+01  1.573623340E+04
1.202128091E+01  1.574654785E+04
1.203704652E+01  1.576523145E+04
1.205281213E+01  1.579352637E+04
1.206857775E+01  1.582454785E+04
1.208434336E+01  1.583890723E+04
1.210010898E+01  1.586453516E+04
1.211587459E+01  1.588896777E+04
1.213164021E+01  1.591620996E+04
1.214740582E+01  1.593270312E+04
1.216317143E+01  1.594521484E+04
1.217893705E+01  1.596685352E+04
1.219470266E+01  1.599052344E+04
1.221046828E+01  1.599609961E+04
1.222623389E+01  1.600121484E+04
1.224199951E+01  1.600085742E+04
1.225776512E+01  1.600598730E+04
1.227353073E+01  1.601761816E+04
1.228929635E+01  1.602483008E+04
1.230506196E+01  1.603974121E+04
1.232082758E+01  1.604055371E+04
1.233659319E+01  1.605309668E+04
1.235235881E+01  1.606038672E+04
1.236812442E+01  1.608480566E+04
1.238389003E+01  1.609899609E+04
1.239965565E+01  1.612971973E+04
1.241542126E+01  1.616563477E+04
1.243118688E+01  1.618570605E+04
1.244695249E+01  1.620485938E+04
1.246271811E+01  1.622475195E+04
1.247848372E+01  1.625067969E+04
1.249424933E+01  1.626194531E+04
1.251001495E+01  1.630248145E+04
1.252578056E+01  1.633403516E+04
1.254154618E+01  1.636377344E+04
1.255731179E+01  1.636154590E+04
1.257307741E+01  1.636981543E+04
1.258884302E+01  1.639258789E+04
1.260460864E+01  1.641295117E+04
1.262037425E+01  1.642235938E+04
1.263613986E+01  1.641794727E+04
1.265190548E+01  1.641090430E+04
1.266767109E+01  1.642242383E+04
1.268343671E+01  1.643819922E+04
1.269920232E+01  1.645073828E+04
1.271496794E+01  1.644727930E+04
1.273073355E+01  1.644969141E+04
1.274649916E+01  1.645974023E+04
1.276226478E+01  1.649484375E+04
1.277803039E+01  1.652522656E+04
1.279379601E+01  1.653140625E+04
1.280956162E+01  1.651690625E+04
1.282532724E+01  1.653453320E+04
1.284109285E+01  1.654017188E+04
1.285685846E+01  1.654697070E+04
1.287262408E+01  1.653810547E+04
1.288838969E+01  1.653985352E+04
1.290415531E+01  1.655085547E+04
1.291992092E+01  1.656857812E+04
1.293568654E+01  1.657299609E+04
1.295145215E+01  1.660086523E+04
1.296721776E+01  1.660348633E+04
1.298298338E+01  1.661825391E+04
1.299874899E+01  1.662504102E+04
1.301451461E+01  1.665384375E+04
1.303028022E+01  1.666850977E+04
1.304604584E+01  1.669957031E+04
1.306181145E+01  1.672892969E+04
1.307757706E+01  1.675966797E+04
1.309334268E+01  1.677212500E+04
1.310910829E+01  1.680573047E+04
1.312487391E+01  1.684468750E+04
1.314063952E+01  1.688753711E+04
1.315640514E+01  1.691043555E+04
1.317217075E+01  1.696515039E+04
1.318793636E+01  1.699370312E+04
1.320370198E+01  1.704399219E+04
1.321946759E+01  1.709883789E+04
1.323523321E+01  1.716095703E+04
1.325099882E+01  1.717603320E+04
1.326676444E+01  1.718162109E+04
1.328253005E+01  1.714967773E+04
1.329829566E+01  1.711702148E+04
1.331406128E+01  1.706224219E+04
1.332982689E+01  1.704779297E+04
1.334559251E+01  1.701473438E+04
1.336135812E+01  1.700600977E+04
1.337712374E+01  1.701277734E+04
1.339288935E+01  1.702814453E+04
1.340865496E+01  1.702891797E+04
1.342442058E+01  1.701836719E+04
1.344018619E+01  1.701060156E+04
1.345595181E+01  1.705474805E+04
1.347171742E+01  1.708897461E+04
1.348748304E+01  1.713659180E+04
1.350324865E+01  1.713140430E+04
1.351901426E+01  1.713188086E+04
1.353477988E+01  1.716447656E+04
1.355054549E+01  1.719704297E+04
1.356631111E+01  1.718697070E+04
1.358207672E+01  1.720314258E+04
1.359784234E+01  1.719802734E+04
1.361360795E+01  1.721741992E+04
1.362937356E+01  1.721696289E+04
1.364513918E+01  1.722790039E+04
1.366090479E+01  1.724638281E+04
1.367667041E+01  1.726483594E+04
1.369243602E+01  1.727044922E+04
1.370820164E+01  1.723765234E+04
1.372396725E+01  1.720558008E+04
1.373973286E+01  1.719359375E+04
1.375549848E+01  1.719360156E+04
1.377126409E+01  1.715707617E+04
1.378702971E+01  1.710522461E+04
1.380279532E+01  1.707445312E+04
1.381856094E+01  1.706287891E+04
1.383432655E+01  1.707374805E+04
1.385009216E+01  1.705937695E+04
1.386585778E+01  1.703376562E+04
1.388162339E+01  1.700944922E+04
1.389738901E+01  1.700613672E+04
1.391315462E+01  1.700073633E+04
1.392892024E+01  1.698775586E+04
1.394468585E+01  1.696851172E+04
1.396045146E+01  1.697437305E+04
1.397621708E+01  1.698326172E+04
1.399198269E+01  1.696788867E+04
1.400774831E+01  1.695076953E+04
1.402351392E+01  1.691851758E+04
1.403927954E+01  1.689739062E+04
1.405504515E+01  1.688940039E+04
1.407081077E+01  1.689848828E+04
1.408657638E+01  1.690119727E+04
1.410234199E+01  1.689770117E+04
1.411810761E+01  1.689233984E+04
1.413387322E+01  1.687721289E+04
1.414963884E+01  1.687727734E+04
1.416540445E+01  1.687452734E+04
1.418117007E+01  1.688365625E+04
1.419693568E+01  1.688206445E+04
1.421270129E+01  1.689566602E+04
1.422846691E+01  1.688515820E+04
1.424423252E+01  1.689459570E+04
1.425999814E+01  1.689528516E+04
1.427576375E+01  1.690402734E+04
1.429152937E+01  1.689347070E+04
1.430729498E+01  1.689822656E+04
1.432306059E+01  1.691166016E+04
1.433882621E+01  1.690794727E+04
1.435459182E+01  1.690200781E+04
1.437035744E+01  1.690347266E+04
1.438612305E+01  1.691291797E+04
1.440188867E+01  1.693324805E+04
1.441765428E+01  1.694909375E+04
1.443341989E+01  1.695382812E+04
1.444918551E+01  1.694477539E+04
1.446495112E+01  1.696028320E+04
1.448071674E+01  1.697598047E+04
1.449648235E+01  1.698669531E+04
1.451224797E+01  1.700683008E+04
1.452801358E+01  1.704271680E+04
1.454377919E+01  1.706069531E+04
1.455954481E+01  1.706964258E+04
1.457531042E+01  1.705907812E+04
1.459107604E+01  1.709597266E+04
1.460684165E+01  1.710397070E+04
1.462260727E+01  1.711372656E+04
1.463837288E+01  1.711020508E+04
1.465413849E+01  1.710549023E+04
1.466990411E+01  1.709611133E+04
1.468566972E+01  1.710497656E+04
1.470143534E+01  1.711538086E+04
1.471720095E+01  1.711861914E+04
1.473296657E+01  1.709068945E+04
1.474873218E+01  1.707494336E+04
1.476449779E+01  1.704612305E+04
1.478026341E+01  1.706336133E+04
1.479602902E+01  1.705564062E+04
1.481179464E+01  1.706511133E+04
1.482756025E+01  1.704288477E+04
1.484332587E+01  1.702676953E+04
1.485909148E+01  1.700281641E+04
1.487485709E+01  1.697300391E+04
1.489062271E+01  1.692737109E+04
1.490638832E+01  1.693825586E+04
1.492215394E+01  1.693225391E+04
1.493791955E+01  1.694508789E+04
1.495368517E+01  1.692051758E+04
1.496945078E+01  1.692609570E+04
1.498521639E+01  1.689699609E+04
1.500098201E+01  1.690328711E+04
1.501674762E+01  1.687891016E+04
1.503251324E+01  1.688483789E+04
1.504827885E+01  1.686867773E+04
1.506404447E+01  1.684014062E+04
1.507981008E+01  1.681068164E+04
1.509557569E+01  1.680400195E+04
1.511134131E+01  1.678643945E+04
1.512710692E+01  1.677977148E+04
1.514287254E+01  1.675207617E+04
1.515863815E+01  1.675495508E+04
1.517440377E+01  1.672437695E+04
1.519016938E+01  1.672643750E+04
1.520593499E+01  1.670852539E+04
1.522170061E+01  1.669184961E+04
1.523746622E+01  1.664370898E+04
1.525323184E+01  1.663098828E+04
1.526899745E+01  1.661139648E+04
1.528476307E+01  1.662647070E+04
1.530052868E+01  1.661787305E+04
1.531629429E+01  1.662355078E+04
1.533205991E+01  1.658390039E+04
1.534782552E+01  1.657206445E+04
1.536359114E+01  1.654392383E+04
1.537935675E+01  1.654488086E+04
1.539512237E+01  1.652123047E+04
1.541088798E+01  1.652973828E+04
1.542665360E+01  1.651366406E+04
1.544241921E+01  1.650183008E+04
1.545818482E+01  1.646908008E+04
1.547395044E+01  1.647186719E+04
1.548971605E+01  1.644346680E+04
1.550548167E+01  1.643188867E+04
1.552124728E+01  1.640448633E+04
1.553701290E+01  1.640542188E+04
1.555277851E+01  1.639290234E+04
1.556854412E+01  1.639980859E+04
1.558430974E+01  1.637841406E+04
1.560007535E+01  1.636662207E+04
1.561584097E+01  1.635201758E+04
1.563160658E+01  1.634264258E+04
1.564737220E+01  1.633242188E+04
1.566313781E+01  1.632392383E+04
1.567890342E+01  1.629408984E+04
1.569466904E+01  1.628857812E+04
1.571043465E+01  1.625272852E+04
1.572620027E+01  1.623011133E+04
1.574196588E+01  1.622126660E+04
1.575773150E+01  1.623203809E+04
1.577349711E+01  1.623193262E+04
1.578926272E+01  1.621990234E+04
1.580502834E+01  1.619188965E+04
1.582079395E+01  1.616440820E+04
1.583655957E+01  1.616263672E+04
1.585232518E+01  1.615434863E+04
1.586809080E+01  1.617010352E+04
1.588385641E+01  1.615059961E+04
1.589962202E+01  1.612170996E+04
1.591538764E+01  1.611795020E+04
1.593115325E+01  1.611012598E+04
1.594691887E+01  1.609742773E+04
1.596268448E+01  1.609997363E+04
1.597845010E+01  1.607385938E+04
1.599421571E+01  1.604482617E+04
1.600998132E+01  1.602667383E+04
1.602574694E+01  1.601442285E+04
1.604151255E+01  1.602219922E+04
1.605727817E+01  1.601987207E+04
1.607304378E+01  1.601510059E+04
1.608880940E+01  1.600990723E+04
1.610457501E+01  1.598502930E+04
1.612034062E+01  1.596875195E+04
1.613610624E+01  1.595492285E+04
1.615187185E+01  1.596064648E+04
1.616763747E+01  1.593902148E+04
1.618340308E+01  1.593313477E+04
1.619916870E+01  1.592561914E+04
1.621493431E+01  1.590657031E+04
1.623069992E+01  1.587677148E+04
1.624646554E+01  1.586234277E+04
1.626223115E+01  1.585849902E+04
1.627799677E+01  1.583761035E+04
1.629376238E+01  1.583087305E+04
1.630952800E+01  1.583997266E+04
1.632529361E+01  1.582915039E+04
1.634105922E+01  1.580003320E+04
1.635682484E+01  1.580723828E+04
1.637259045E+01  1.583107910E+04
1.638835607E+01  1.583679883E+04
1.640412168E+01  1.581153320E+04
1.641988730E+01  1.579524512E+04
1.643565291E+01  1.577717090E+04
1.645141852E+01  1.577008301E+04
1.646718414E+01  1.577586621E+04
1.648294975E+01  1.577732324E+04
1.649871537E+01  1.576280273E+04
1.651448098E+01  1.576395312E+04
1.653024660E+01  1.573258594E+04
1.654601221E+01  1.573181250E+04
1.656177782E+01  1.573854102E+04
1.657754344E+01  1.574038184E+04
1.659330905E+01  1.572354883E+04
1.660907467E+01  1.570924316E+04
1.662484028E+01  1.569600879E+04
1.664060590E+01  1.568581836E+04
1.665637151E+01  1.567747070E+04
1.667213712E+01  1.569819434E+04
1.668790274E+01  1.569730371E+04
1.670366835E+01  1.568890039E+04
1.671943397E+01  1.565854883E+04
1.673519958E+01  1.564263281E+04
1.675096520E+01  1.562669043E+04
1.676673081E+01  1.561983691E+04
1.678249642E+01  1.559374512E+04
1.679826204E+01  1.560363379E+04
1.681402765E+01  1.560359863E+04
1.682979327E+01  1.558679102E+04
1.684555888E+01  1.556757520E+04
1.686132450E+01  1.558062305E+04
1.687709011E+01  1.557365820E+04
1.689285573E+01  1.555514258E+04
1.690862134E+01  1.554949023E+04
1.692438695E+01  1.555555176E+04
1.694015257E+01  1.555426270E+04
1.695591818E+01  1.555660059E+04
1.697168380E+01  1.556479688E+04
1.698744941E+01  1.556086426E+04
1.700321503E+01  1.554323828E+04
1.701898064E+01  1.553755859E+04
1.703474625E+01  1.550585742E+04
1.705051187E+01  1.546264062E+04
1.706627748E+01  1.543741016E+04
1.708204310E+01  1.548280469E+04
1.709780871E+01  1.549097559E+04
1.711357433E+01  1.549552246E+04
1.712933994E+01  1.548967285E+04
1.714510555E+01  1.548967578E+04
1.716087117E+01  1.550655078E+04
1.717663678E+01  1.550373828E+04
1.719240240E+01  1.549626367E+04
1.720816801E+01  1.547271875E+04
1.722393363E+01  1.544658984E+04
1.723969924E+01  1.545310645E+04
1.725546485E+01  1.546186035E+04
1.727123047E+01  1.545286230E+04
1.728699608E+01  1.543500879E+04
1.730276170E+01  1.540981934E+04
1.731852731E+01  1.540011621E+04
1.733429293E+01  1.540286133E+04
1.735005854E+01  1.536375879E+04
1.736582415E+01  1.534658301E+04
1.738158977E+01  1.532123340E+04
1.739735538E+01  1.530336035E+04
1.741312100E+01  1.529715430E+04
1.742888661E+01  1.528370508E+04
1.744465223E+01  1.526711914E+04
1.746041784E+01  1.524570605E+04
1.747618345E+01  1.524363672E+04
1.749194907E+01  1.523624512E+04
1.750771468E+01  1.521566992E+04
1.752348030E+01  1.519231543E+04
1.753924591E+01  1.518011328E+04
1.755501153E+01  1.517913672E+04
1.757077714E+01  1.515619238E+04
1.758654275E+01  1.513718555E+04
1.760230837E+01  1.510974023E+04
1.761807398E+01  1.510087793E+04
1.763383960E+01  1.509099023E+04
1.764960521E+01  1.507598535E+04
1.766537083E+01  1.506178809E+04
1.768113644E+01  1.503930957E+04
1.769690205E+01  1.501305371E+04
1.771266767E+01  1.498771094E+04
1.772843328E+01  1.497195312E+04
1.774419890E+01  1.496161719E+04
1.775996451E+01  1.496238574E+04
1.777573013E+01  1.495122461E+04
1.779149574E+01  1.492763086E+04
1.780726135E+01  1.491621289E+04
1.782302697E+01  1.488087500E+04
1.783879258E+01  1.485387695E+04
1.785455820E+01  1.483964648E+04
1.787032381E+01  1.482553711E+04
1.788608943E+01  1.482215039E+04
1.790185504E+01  1.480301172E+04
1.791762065E+01  1.483267383E+04
1.793338627E+01  1.482081055E+04
1.794915188E+01  1.479865625E+04
1.796491750E+01  1.476139062E+04
1.798068311E+01  1.472956738E+04
1.799644873E+01  1.470929199E+04
1.801221434E+01  1.470382227E+04
1.802797995E+01  1.469646973E+04
1.804374557E+01  1.469790723E+04
1.805951118E+01  1.467714746E+04
1.807527680E+01  1.464112695E+04
1.809104241E+01  1.461611816E+04
1.810680803E+01  1.460901562E+04
1.812257364E+01  1.460978027E+04
1.813833925E+01  1.457917480E+04
1.815410487E+01  1.456484668E+04
1.816987048E+01  1.456092090E+04
1.818563610E+01  1.454781934E+04
1.820140171E+01  1.453475977E+04
1.821716733E+01  1.450661328E+04
1.823293294E+01  1.447425586E+04
1.824869856E+01  1.446269043E+04
1.826446417E+01  1.444928418E+04
1.828022978E+01  1.446117480E+04
1.829599540E+01  1.445808691E+04
1.831176101E+01  1.443684180E+04
1.832752663E+01  1.441111230E+04
1.834329224E+01  1.438281055E+04
1.835905786E+01  1.436341406E+04
1.837482347E+01  1.436136426E+04
1.839058908E+01  1.435404492E+04
1.840635470E+01  1.434951758E+04
1.842212031E+01  1.431221875E+04
1.843788593E+01  1.430434375E+04
1.845365154E+01  1.430122559E+04
1.846941716E+01  1.428558691E+04
1.848518277E+01  1.428529492E+04
1.850094838E+01  1.427343945E+04
1.851671400E+01  1.425856445E+04
1.853247961E+01  1.422849219E+04
1.854824523E+01  1.418689355E+04
1.856401084E+01  1.417647852E+04
1.857977646E+01  1.415256445E+04
1.859554207E+01  1.413092969E+04
1.861130768E+01  1.412528418E+04
1.862707330E+01  1.409341309E+04
1.864283891E+01  1.408400293E+04
1.865860453E+01  1.407875098E+04
1.867437014E+01  1.407215723E+04
1.869013576E+01  1.405983301E+04
1.870590137E+01  1.404372949E+04
1.872166698E+01  1.402315918E+04
1.873743260E+01  1.401794824E+04
1.875319821E+01  1.400386133E+04
1.876896383E+01  1.398462988E+04
1.878472944E+01  1.395959473E+04
1.880049506E+01  1.391229590E+04
1.881626067E+01  1.391448047E+04
1.883202628E+01  1.391447168E+04
1.884779190E+01  1.390037500E+04
1.886355751E+01  1.390653418E+04
1.887932313E+01  1.389320312E+04
1.889508874E+01  1.388461035E+04
1.891085436E+01  1.385286426E+04
1.892661997E+01  1.383696680E+04
1.894238558E+01  1.381564062E+04
1.895815120E+01  1.381410645E+04
1.897391681E+01  1.379097070E+04
1.898968243E+01  1.377580664E+04
1.900544804E+01  1.375693750E+04
1.902121366E+01  1.375168457E+04
1.903697927E+01  1.376332617E+04
1.905274488E+01  1.373303125E+04
1.906851050E+01  1.373500293E+04
1.908427611E+01  1.373001367E+04
1.910004173E+01  1.375089258E+04
1.911580734E+01  1.374034180E+04
1.913157296E+01  1.372399609E+04
1.914733857E+01  1.373950781E+04
1.916310418E+01  1.372043750E+04
1.917886980E+01  1.372802734E+04
1.919463541E+01  1.373004492E+04
1.921040103E+01  1.373702734E+04
1.922616664E+01  1.374080566E+04
1.924193226E+01  1.372940039E+04
1.925769787E+01  1.375648438E+04
1.927346348E+01  1.374410547E+04
1.928922910E+01  1.374530273E+04
1.930499471E+01  1.373849121E+04
1.932076033E+01  1.373613379E+04
1.933652594E+01  1.373003223E+04
1.935229156E+01  1.372322070E+04
1.936805717E+01  1.371790820E+04
1.938382278E+01  1.370560352E+04
1.939958840E+01  1.371740332E+04
1.941535401E+01  1.370890918E+04
1.943111963E+01  1.371694531E+04
1.944688524E+01  1.372204590E+04
1.946265086E+01  1.375866406E+04
1.947841647E+01  1.378981445E+04
1.949418208E+01  1.377620703E+04
1.950994770E+01  1.377966309E+04
1.952571331E+01  1.379415332E+04
1.954147893E+01  1.381223926E+04
1.955724454E+01  1.382106934E+04
1.957301016E+01  1.379846289E+04
1.958877577E+01  1.379663965E+04
1.960454138E+01  1.379509961E+04
1.962030700E+01  1.380264844E+04
1.963607261E+01  1.380134473E+04
1.965183823E+01  1.378432227E+04
1.966760384E+01  1.378693945E+04
1.968336946E+01  1.380243555E+04
1.969913507E+01  1.379134961E+04
1.971490069E+01  1.378917383E+04
1.973066630E+01  1.380176074E+04
1.974643191E+01  1.382347559E+04
1.976219753E+01  1.383358984E+04
1.977796314E+01  1.386774414E+04
1.979372876E+01  1.387976465E+04
1.980949437E+01  1.387619434E+04
1.982525999E+01  1.388004102E+04
1.984102560E+01  1.389804785E+04
1.985679121E+01  1.390533984E+04
1.987255683E+01  1.389310742E+04
1.988832244E+01  1.390288379E+04
1.990408806E+01  1.391018359E+04
1.991985367E+01  1.392597559E+04
1.993561929E+01  1.391895703E+04
1.995138490E+01  1.391058594E+04
1.996715051E+01  1.388939746E+04
1.998291613E+01  1.388995996E+04
1.999868174E+01  1.387188770E+04
2.001444736E+01  1.386865039E+04
2.003021297E+01  1.384831152E+04
2.004597859E+01  1.384876465E+04
2.006174420E+01  1.383346875E+04
2.007750981E+01  1.384095410E+04
2.009327543E+01  1.381366406E+04
2.010904104E+01  1.378897559E+04
2.012480666E+01  1.376808594E+04
2.014057227E+01  1.376958105E+04
2.015633789E+01  1.376347559E+04
2.017210350E+01  1.375482617E+04
2.018786911E+01  1.373430566E+04
2.020363473E+01  1.370927441E+04
2.021940034E+01  1.369123340E+04
2.023516596E+01  1.368777148E+04
2.025093157E+01  1.368484375E+04
2.026669719E+01  1.368057812E+04
2.028246280E+01  1.365348145E+04
2.029822841E+01  1.362801953E+04
2.031399403E+01  1.359525391E+04
2.032975964E+01  1.355959180E+04
2.034552526E+01  1.354526660E+04
2.036129087E+01  1.354953418E+04
2.037705649E+01  1.355417188E+04
2.039282210E+01  1.355550781E+04
2.040858771E+01  1.355052637E+04
2.042435333E+01  1.353303516E+04
2.044011894E+01  1.352193164E+04
2.045588456E+01  1.351871973E+04
2.047165017E+01  1.350718750E+04
2.048741579E+01  1.350058789E+04
2.050318140E+01  1.349346973E+04
2.051894701E+01  1.349154590E+04
2.053471263E+01  1.349230078E+04
2.055047824E+01  1.347980957E+04
2.056624386E+01  1.345730273E+04
2.058200947E+01  1.344799609E+04
2.059777509E+01  1.344460547E+04
2.061354070E+01  1.343466211E+04
2.062930631E+01  1.341480469E+04
2.064507193E+01  1.339575586E+04
2.066083754E+01  1.336420703E+04
2.067660316E+01  1.334841211E+04
2.069236877E+01  1.335142578E+04
2.070813439E+01  1.336158301E+04
2.072390000E+01  1.335750000E+04
2.073966561E+01  1.335388281E+04
2.075543123E+01  1.335766406E+04
2.077119684E+01  1.334308887E+04
2.078696246E+01  1.333313867E+04
2.080272807E+01  1.329911523E+04
2.081849369E+01  1.326856348E+04
2.083425930E+01  1.325723828E+04
2.085002491E+01  1.326109668E+04
2.086579053E+01  1.327037402E+04
2.088155614E+01  1.325815527E+04
2.089732176E+01  1.322791016E+04
2.091308737E+01  1.321281641E+04
2.092885299E+01  1.322229980E+04
2.094461860E+01  1.322674609E+04
2.096038421E+01  1.320378613E+04
2.097614983E+01  1.318374414E+04
2.099191544E+01  1.318502246E+04
2.100768106E+01  1.315984082E+04
2.102344667E+01  1.315136328E+04
2.103921229E+01  1.314149707E+04
2.105497790E+01  1.314556738E+04
2.107074351E+01  1.312364258E+04
2.108650913E+01  1.312563184E+04
2.110227474E+01  1.310338477E+04
2.111804036E+01  1.310996875E+04
2.113380597E+01  1.310112305E+04
2.114957159E+01  1.308572168E+04
2.116533720E+01  1.306177344E+04
2.118110282E+01  1.306100195E+04
2.119686843E+01  1.304256836E+04
2.121263404E+01  1.304241504E+04
2.122839966E+01  1.306185742E+04
2.124416527E+01  1.305774902E+04
2.125993089E+01  1.303623926E+04
2.127569650E+01  1.300753223E+04
2.129146212E+01  1.299060938E+04
2.130722773E+01  1.297026270E+04
2.132299334E+01  1.295716406E+04
2.133875896E+01  1.295896680E+04
2.135452457E+01  1.295956738E+04
2.137029019E+01  1.296762109E+04
2.138605580E+01  1.297238379E+04
2.140182142E+01  1.294155176E+04
2.141758703E+01  1.290502930E+04
2.143335264E+01  1.285683398E+04
2.144911826E+01  1.287395801E+04
2.146488387E+01  1.289343359E+04
2.148064949E+01  1.285987891E+04
2.149641510E+01  1.280086328E+04
2.151218072E+01  1.275232129E+04
2.152794633E+01  1.277791016E+04
2.154371194E+01  1.282134863E+04
2.155947756E+01  1.282808984E+04
2.157524317E+01  1.284065527E+04
2.159100879E+01  1.282805566E+04
2.160677440E+01  1.281522070E+04
2.162254002E+01  1.278714160E+04
2.163830563E+01  1.279144141E+04
2.165407124E+01  1.279825098E+04
2.166983686E+01  1.279921484E+04
2.168560247E+01  1.279086719E+04
2.170136809E+01  1.276254980E+04
2.171713370E+01  1.274546582E+04
2.173289932E+01  1.275330566E+04
2.174866493E+01  1.276011816E+04
2.176443054E+01  1.273715723E+04
2.178019616E+01  1.271114746E+04
2.179596177E+01  1.268380859E+04
2.181172739E+01  1.266893262E+04
2.182749300E+01  1.264511426E+04
2.184325862E+01  1.265595703E+04
2.185902423E+01  1.267888574E+04
2.187478984E+01  1.269804785E+04
2.189055546E+01  1.267170801E+04
2.190632107E+01  1.265312012E+04
2.192208669E+01  1.264655371E+04
2.193785230E+01  1.262453125E+04
2.195361792E+01  1.261061426E+04
2.196938353E+01  1.258841504E+04
2.198514914E+01  1.257668164E+04
2.200091476E+01  1.254525586E+04
2.201668037E+01  1.255056738E+04
2.203244599E+01  1.255982031E+04
2.204821160E+01  1.254539746E+04
2.206397722E+01  1.254320703E+04
2.207974283E+01  1.253535742E+04
2.209550844E+01  1.254142969E+04
2.211127406E+01  1.252543066E+04
2.212703967E+01  1.250871582E+04
2.214280529E+01  1.247040820E+04
2.215857090E+01  1.246777441E+04
2.217433652E+01  1.251750293E+04
2.219010213E+01  1.254644043E+04
2.220586774E+01  1.247378906E+04
2.222163336E+01  1.239524316E+04
2.223739897E+01  1.237272754E+04
2.225316459E+01  1.237400781E+04
2.226893020E+01  1.238765918E+04
2.228469582E+01  1.237246582E+04
2.230046143E+01  1.238416211E+04
2.231622704E+01  1.237281250E+04
2.233199266E+01  1.238837402E+04
2.234775827E+01  1.239248145E+04
2.236352389E+01  1.237850293E+04
2.237928950E+01  1.233888770E+04
2.239505512E+01  1.235422754E+04
2.241082073E+01  1.235118066E+04
2.242658634E+01  1.235963281E+04
2.244235196E+01  1.236188477E+04
2.245811757E+01  1.233960254E+04
2.247388319E+01  1.227824707E+04
2.248964880E+01  1.223556738E+04
2.250541442E+01  1.222344727E+04
2.252118003E+01  1.222707520E+04
2.253694565E+01  1.223117969E+04
2.255271126E+01  1.220750977E+04
2.256847687E+01  1.217801953E+04
2.258424249E+01  1.218195410E+04
2.260000810E+01  1.219769141E+04
2.261577372E+01  1.218238965E+04
2.263153933E+01  1.216362988E+04
2.264730495E+01  1.219105469E+04
2.266307056E+01  1.219599512E+04
2.267883617E+01  1.213465039E+04
2.269460179E+01  1.211336133E+04
2.271036740E+01  1.215280371E+04
2.272613302E+01  1.215988574E+04
2.274189863E+01  1.215399121E+04
2.275766425E+01  1.210896582E+04
2.277342986E+01  1.210852441E+04
2.278919547E+01  1.210927051E+04
2.280496109E+01  1.212795410E+04
2.282072670E+01  1.211426758E+04
2.283649232E+01  1.210537207E+04
2.285225793E+01  1.208835840E+04
2.286802355E+01  1.206348535E+04
2.288378916E+01  1.202604199E+04
2.289955477E+01  1.200562305E+04
2.291532039E+01  1.198415527E+04
2.293108600E+01  1.196163672E+04
2.294685162E+01  1.195534473E+04
2.296261723E+01  1.195994141E+04
2.297838285E+01  1.198981152E+04
2.299414846E+01  1.202929492E+04
2.300991407E+01  1.205119824E+04
2.302567969E+01  1.202151367E+04
2.304144530E+01  1.196004102E+04
2.305721092E+01  1.191150293E+04
2.307297653E+01  1.189766602E+04
2.308874215E+01  1.187930371E+04
2.310450776E+01  1.185763184E+04
2.312027337E+01  1.189587598E+04
2.313603899E+01  1.186414551E+04
2.315180460E+01  1.185565723E+04
2.316757022E+01  1.184137207E+04
2.318333583E+01  1.176811914E+04
2.319910145E+01  1.177214355E+04
2.321486706E+01  1.178900781E+04
2.323063267E+01  1.182072559E+04
2.324639829E+01  1.175036035E+04
2.326216390E+01  1.170275879E+04
2.327792952E+01  1.171020410E+04
2.329369513E+01  1.185376074E+04
2.330946075E+01  1.191538574E+04
2.332522636E+01  1.187050098E+04
2.334099197E+01  1.179707031E+04
2.335675759E+01  1.175914648E+04
2.337252320E+01  1.174874023E+04
2.338828882E+01  1.172558398E+04
2.340405443E+01  1.178599707E+04
2.341982005E+01  1.176577930E+04
2.343558566E+01  1.179810254E+04
2.345135127E+01  1.171908691E+04
2.346711689E+01  1.173408984E+04
2.348288250E+01  1.175336816E+04
2.349864812E+01  1.185394434E+04
2.351441373E+01  1.195105469E+04
2.353017935E+01  1.186220020E+04
2.354594496E+01  1.170626562E+04
2.356171057E+01  1.157981543E+04
2.357747619E+01  1.170549414E+04
2.359324180E+01  1.199337109E+04
2.360900742E+01  1.203655078E+04
2.362477303E+01  1.209302832E+04
2.364053865E+01  1.190430859E+04
2.365630426E+01  1.185694336E+04
2.367206987E+01  1.170383203E+04
2.368783549E+01  1.152500781E+04
2.370360110E+01  1.103989941E+04
2.371936672E+01  1.093366113E+04
2.373513233E+01  1.077069043E+04
2.375089795E+01  1.048893457E+04
2.376666356E+01  9.847862305E+03
