# == pyFAI calibration ==
# SplineFile: None
# PixelSize: 1.720e-04, 1.720e-04 m
# PONI: 8.722e-02, 8.342e-02 m
# Distance Sample to Detector: 0.284634930882 m
# Rotations: -0.000251 0.000603 -0.000000 rad
# 
# == Fit2d calibration ==
# Distance Sample-beamCenter: 284.635 mm
# Center: x=485.389, y=508.119 pix
# Tilt: 0.037 deg  TiltPlanRot: 67.409 deg
# 
# Wavelength: 3.344e-11
# Polarization factor: 0.99
# Normalization factor: None
#
# 2th_deg	 I
7.882808091E-03  1.390727539E+02
2.364842239E-02  1.461439056E+02
3.941403669E-02  1.454914703E+02
5.517965100E-02  1.336404266E+02
7.094526530E-02  1.130913391E+02
8.671087960E-02  1.042546616E+02
1.024764939E-01  9.290061951E+01
1.182421082E-01  9.093597412E+01
1.340077225E-01  8.410675049E+01
1.497733368E-01  8.607498169E+01
1.655389511E-01  7.995207977E+01
1.813045654E-01  8.220302582E+01
1.970701797E-01  7.783390808E+01
2.128357940E-01  8.010128021E+01
2.286014083E-01  7.828527832E+01
2.443670226E-01  7.869813538E+01
2.601326369E-01  7.744441223E+01
2.758982512E-01  7.791352844E+01
2.916638655E-01  7.867422485E+01
3.074294798E-01  8.886537170E+01
3.231950941E-01  9.499902344E+01
3.389607084E-01  9.932446289E+01
3.547263227E-01  9.938542175E+01
3.704919370E-01  1.021427231E+02
3.862575513E-01  1.049134750E+02
4.020231656E-01  1.069065475E+02
4.177887799E-01  1.092818146E+02
4.335543942E-01  1.091976547E+02
4.493200085E-01  1.110998001E+02
4.650856228E-01  1.119175720E+02
4.808512371E-01  1.129079971E+02
4.966168514E-01  1.132090683E+02
5.123824657E-01  1.141751709E+02
5.281480800E-01  1.145375443E+02
5.439136943E-01  1.166074982E+02
5.596793086E-01  1.158641052E+02
5.754449229E-01  1.169317932E+02
5.912105372E-01  1.161809158E+02
6.069761516E-01  1.167942657E+02
6.227417659E-01  1.177535934E+02
6.385073802E-01  1.191849060E+02
6.542729945E-01  1.197801208E+02
6.700386088E-01  1.198434372E+02
6.858042231E-01  1.215139999E+02
7.015698374E-01  1.221525726E+02
7.173354517E-01  1.222540131E+02
7.331010660E-01  1.219902267E+02
7.488666803E-01  1.214930344E+02
7.646322946E-01  1.229920807E+02
7.803979089E-01  1.228973999E+02
7.961635232E-01  1.234478226E+02
8.119291375E-01  1.224323730E+02
8.276947518E-01  1.242920303E+02
8.434603661E-01  1.249030304E+02
8.592259804E-01  1.261222076E+02
8.749915947E-01  1.256947021E+02
8.907572090E-01  1.271035614E+02
9.065228233E-01  1.264709396E+02
9.222884376E-01  1.263506622E+02
9.380540519E-01  1.258376007E+02
9.538196662E-01  1.259954987E+02
9.695852805E-01  1.251655655E+02
9.853508948E-01  1.269486923E+02
1.001116509E+00  1.280264282E+02
1.016882123E+00  1.284787292E+02
1.032647738E+00  1.289763184E+02
1.048413352E+00  1.288100128E+02
1.064178966E+00  1.298171539E+02
1.079944581E+00  1.297475128E+02
1.095710195E+00  1.300973511E+02
1.111475809E+00  1.297274628E+02
1.127241424E+00  1.304616089E+02
1.143007038E+00  1.307336273E+02
1.158772652E+00  1.319296265E+02
1.174538266E+00  1.327581787E+02
1.190303881E+00  1.328074799E+02
1.206069495E+00  1.329310608E+02
1.221835109E+00  1.329659882E+02
1.237600724E+00  1.339748077E+02
1.253366338E+00  1.352788544E+02
1.269131952E+00  1.375927582E+02
1.284897567E+00  1.406510315E+02
1.300663181E+00  1.445204315E+02
1.316428795E+00  1.514188232E+02
1.332194409E+00  1.666599274E+02
1.347960024E+00  2.048013306E+02
1.363725638E+00  2.815519714E+02
1.379491252E+00  3.874620667E+02
1.395256867E+00  5.300042725E+02
1.411022481E+00  6.763522949E+02
1.426788095E+00  8.080010376E+02
1.442553710E+00  9.422888184E+02
1.458319324E+00  1.056206787E+03
1.474084938E+00  1.191590332E+03
1.489850552E+00  1.299592285E+03
1.505616167E+00  1.431366333E+03
1.521381781E+00  1.570630005E+03
1.537147395E+00  1.684767700E+03
1.552913010E+00  1.807662842E+03
1.568678624E+00  1.916276855E+03
1.584444238E+00  2.044840820E+03
1.600209853E+00  2.170284912E+03
1.615975467E+00  2.321404297E+03
1.631741081E+00  2.465049072E+03
1.647506695E+00  2.600460938E+03
1.663272310E+00  2.731130127E+03
1.679037924E+00  2.882407227E+03
1.694803538E+00  3.042674561E+03
1.710569153E+00  3.218563477E+03
1.726334767E+00  3.389222900E+03
1.742100381E+00  3.580618652E+03
1.757865996E+00  3.748364990E+03
1.773631610E+00  3.931106689E+03
1.789397224E+00  4.137489746E+03
1.805162838E+00  4.330951660E+03
1.820928453E+00  4.499032715E+03
1.836694067E+00  4.650580078E+03
1.852459681E+00  4.781196777E+03
1.868225296E+00  4.912251465E+03
1.883990910E+00  5.025008789E+03
1.899756524E+00  5.151876953E+03
1.915522139E+00  5.260704590E+03
1.931287753E+00  5.364687500E+03
1.947053367E+00  5.427669434E+03
1.962818981E+00  5.538103516E+03
1.978584596E+00  5.652511230E+03
1.994350210E+00  5.771154297E+03
2.010115824E+00  5.840665527E+03
2.025881439E+00  5.943632324E+03
2.041647053E+00  6.052072266E+03
2.057412667E+00  6.127188477E+03
2.073178282E+00  6.221281250E+03
2.088943896E+00  6.292162109E+03
2.104709510E+00  6.396654785E+03
2.120475125E+00  6.454589355E+03
2.136240739E+00  6.542103516E+03
2.152006353E+00  6.612694824E+03
2.167771967E+00  6.720662598E+03
2.183537582E+00  6.789518066E+03
2.199303196E+00  6.867927734E+03
2.215068810E+00  6.917919434E+03
2.230834425E+00  6.967995605E+03
2.246600039E+00  7.040020020E+03
2.262365653E+00  7.105994629E+03
2.278131268E+00  7.220006836E+03
2.293896882E+00  7.277379883E+03
2.309662496E+00  7.367592285E+03
2.325428110E+00  7.404190430E+03
2.341193725E+00  7.482656250E+03
2.356959339E+00  7.512524414E+03
2.372724953E+00  7.585132324E+03
2.388490568E+00  7.665481445E+03
2.404256182E+00  7.727482910E+03
2.420021796E+00  7.796041992E+03
2.435787411E+00  7.814524902E+03
2.451553025E+00  7.891755859E+03
2.467318639E+00  7.925343262E+03
2.483084253E+00  7.996134766E+03
2.498849868E+00  8.030091797E+03
2.514615482E+00  8.095962891E+03
2.530381096E+00  8.125896484E+03
2.546146711E+00  8.164221191E+03
2.561912325E+00  8.184656738E+03
2.577677939E+00  8.239482422E+03
2.593443554E+00  8.298904297E+03
2.609209168E+00  8.353884766E+03
2.624974782E+00  8.420306641E+03
2.640740396E+00  8.458366211E+03
2.656506011E+00  8.522200195E+03
2.672271625E+00  8.537130859E+03
2.688037239E+00  8.593540039E+03
2.703802854E+00  8.587760742E+03
2.719568468E+00  8.637911133E+03
2.735334082E+00  8.656578125E+03
2.751099697E+00  8.716169922E+03
2.766865311E+00  8.743119141E+03
2.782630925E+00  8.780869141E+03
2.798396539E+00  8.815273438E+03
2.814162154E+00  8.836001953E+03
2.829927768E+00  8.860215820E+03
2.845693382E+00  8.858115234E+03
2.861458997E+00  8.920933594E+03
2.877224611E+00  8.948513672E+03
2.892990225E+00  9.011625977E+03
2.908755840E+00  8.985823242E+03
2.924521454E+00  8.893464844E+03
2.940287068E+00  8.781621094E+03
2.956052682E+00  8.696005859E+03
2.971818297E+00  8.631682617E+03
2.987583911E+00  8.577616211E+03
3.003349525E+00  8.559063477E+03
3.019115140E+00  8.511750977E+03
3.034880754E+00  8.488596680E+03
3.050646368E+00  8.439544922E+03
3.066411983E+00  8.424180664E+03
3.082177597E+00  8.382446289E+03
3.097943211E+00  8.390764648E+03
3.113708825E+00  8.369958984E+03
3.129474440E+00  8.350726562E+03
3.145240054E+00  8.326723633E+03
3.161005668E+00  8.287536133E+03
3.176771283E+00  8.272994141E+03
3.192536897E+00  8.243782227E+03
3.208302511E+00  8.245263672E+03
3.224068126E+00  8.226799805E+03
3.239833740E+00  8.234901367E+03
3.255599354E+00  8.207862305E+03
3.271364969E+00  8.200440430E+03
3.287130583E+00  8.160384277E+03
3.302896197E+00  8.160572266E+03
3.318661811E+00  8.152064453E+03
3.334427426E+00  8.147204590E+03
3.350193040E+00  8.145050293E+03
3.365958654E+00  8.122166016E+03
3.381724269E+00  8.131997070E+03
3.397489883E+00  8.111958984E+03
3.413255497E+00  8.105265625E+03
3.429021112E+00  8.096565430E+03
3.444786726E+00  8.110970215E+03
3.460552340E+00  8.082330078E+03
3.476317954E+00  8.052355469E+03
3.492083569E+00  8.036115723E+03
3.507849183E+00  8.181823730E+03
3.523614797E+00  8.314937500E+03
3.539380412E+00  8.424561523E+03
3.555146026E+00  8.521629883E+03
3.570911640E+00  8.576222656E+03
3.586677255E+00  8.661675781E+03
3.602442869E+00  8.683875977E+03
3.618208483E+00  8.743032227E+03
3.633974097E+00  8.764812500E+03
3.649739712E+00  8.828120117E+03
3.665505326E+00  8.863419922E+03
3.681270940E+00  8.921978516E+03
3.697036555E+00  8.936750000E+03
3.712802169E+00  8.973673828E+03
3.728567783E+00  9.037920898E+03
3.744333398E+00  9.089622070E+03
3.760099012E+00  9.126663086E+03
3.775864626E+00  9.139513672E+03
3.791630240E+00  9.176177734E+03
3.807395855E+00  9.187329102E+03
3.823161469E+00  9.212805664E+03
3.838927083E+00  9.096959961E+03
3.854692698E+00  9.005861328E+03
3.870458312E+00  8.924243164E+03
3.886223926E+00  8.866810547E+03
3.901989541E+00  8.818631836E+03
3.917755155E+00  8.765104492E+03
3.933520769E+00  8.734338867E+03
3.949286383E+00  8.692497070E+03
3.965051998E+00  8.674932617E+03
3.980817612E+00  8.628256836E+03
3.996583226E+00  8.628963867E+03
4.012348841E+00  8.571112305E+03
4.028114455E+00  8.537666016E+03
4.043880069E+00  8.507119141E+03
4.059645684E+00  8.500222656E+03
4.075411298E+00  8.493981445E+03
4.091176912E+00  8.475125000E+03
4.106942526E+00  8.474025391E+03
4.122708141E+00  8.446399414E+03
4.138473755E+00  8.435618164E+03
4.154239369E+00  8.407480469E+03
4.170004984E+00  8.434013672E+03
4.185770598E+00  8.407875977E+03
4.201536212E+00  8.390095703E+03
4.217301827E+00  8.349217773E+03
4.233067441E+00  8.329035156E+03
4.248833055E+00  8.311101562E+03
4.264598670E+00  8.296945312E+03
4.280364284E+00  8.283829102E+03
4.296129898E+00  8.269326172E+03
4.311895512E+00  8.270199219E+03
4.327661127E+00  8.243610352E+03
4.343426741E+00  8.255969727E+03
4.359192355E+00  8.225473633E+03
4.374957970E+00  8.227630859E+03
4.390723584E+00  8.201063477E+03
4.406489198E+00  8.189929688E+03
4.422254813E+00  8.265063477E+03
4.438020427E+00  8.426411133E+03
4.453786041E+00  8.541583008E+03
4.469551655E+00  8.646711914E+03
4.485317270E+00  8.710319336E+03
4.501082884E+00  8.774843750E+03
4.516848498E+00  8.829549805E+03
4.532614113E+00  8.851518555E+03
4.548379727E+00  8.892583984E+03
4.564145341E+00  8.897281250E+03
4.579910956E+00  8.944170898E+03
4.595676570E+00  8.957452148E+03
4.611442184E+00  8.987050781E+03
4.627207798E+00  9.021416016E+03
4.642973413E+00  9.061029297E+03
4.658739027E+00  9.088278320E+03
4.674504641E+00  9.107600586E+03
4.690270256E+00  9.134750000E+03
4.706035870E+00  9.154279297E+03
4.721801484E+00  9.197212891E+03
4.737567099E+00  9.220450195E+03
4.753332713E+00  9.238666016E+03
4.769098327E+00  9.265263672E+03
4.784863941E+00  9.281505859E+03
4.800629556E+00  9.291502930E+03
4.816395170E+00  9.314427734E+03
4.832160784E+00  9.350115234E+03
4.847926399E+00  9.391178711E+03
4.863692013E+00  9.413407227E+03
4.879457627E+00  9.429333008E+03
4.895223242E+00  9.455925781E+03
4.910988856E+00  9.475683594E+03
4.926754470E+00  9.505014648E+03
4.942520084E+00  9.500685547E+03
4.958285699E+00  9.545766602E+03
4.974051313E+00  9.554017578E+03
4.989816927E+00  9.591417969E+03
5.005582542E+00  9.618298828E+03
5.021348156E+00  9.642926758E+03
5.037113770E+00  9.637854492E+03
5.052879385E+00  9.642723633E+03
5.068644999E+00  9.651330078E+03
5.084410613E+00  9.651361328E+03
5.100176227E+00  9.692072266E+03
5.115941842E+00  9.710421875E+03
5.131707456E+00  9.744178711E+03
5.147473070E+00  9.767028320E+03
5.163238685E+00  9.785522461E+03
5.179004299E+00  9.777895508E+03
5.194769913E+00  9.779352539E+03
5.210535528E+00  9.807648438E+03
5.226301142E+00  9.827157227E+03
5.242066756E+00  9.849526367E+03
5.257832371E+00  9.862938477E+03
5.273597985E+00  9.888172852E+03
5.289363599E+00  9.897369141E+03
5.305129213E+00  9.927935547E+03
5.320894828E+00  9.924960938E+03
5.336660442E+00  9.950545898E+03
5.352426056E+00  9.980367188E+03
5.368191671E+00  1.001432617E+04
5.383957285E+00  1.003454199E+04
5.399722899E+00  1.004143164E+04
5.415488514E+00  1.005379004E+04
5.431254128E+00  1.004094043E+04
5.447019742E+00  1.005320801E+04
5.462785356E+00  1.007792578E+04
5.478550971E+00  1.010099219E+04
5.494316585E+00  1.011309375E+04
5.510082199E+00  1.013067090E+04
5.525847814E+00  1.013921387E+04
5.541613428E+00  1.016488184E+04
5.557379042E+00  1.016653906E+04
5.573144657E+00  1.019941602E+04
5.588910271E+00  1.021004590E+04
5.604675885E+00  1.023425195E+04
5.620441499E+00  1.025373145E+04
5.636207114E+00  1.024857031E+04
5.651972728E+00  1.025430469E+04
5.667738342E+00  1.026493555E+04
5.683503957E+00  1.029335059E+04
5.699269571E+00  1.029770801E+04
5.715035185E+00  1.031888867E+04
5.730800800E+00  1.033449316E+04
5.746566414E+00  1.035847266E+04
5.762332028E+00  1.037086523E+04
5.778097642E+00  1.038458398E+04
5.793863257E+00  1.041177734E+04
5.809628871E+00  1.041565625E+04
5.825394485E+00  1.043951953E+04
5.841160100E+00  1.046914551E+04
5.856925714E+00  1.049654297E+04
5.872691328E+00  1.049227637E+04
5.888456943E+00  1.050438184E+04
5.904222557E+00  1.051662695E+04
5.919988171E+00  1.054070801E+04
5.935753785E+00  1.054513770E+04
5.951519400E+00  1.059819238E+04
5.967285014E+00  1.060753027E+04
5.983050628E+00  1.062795410E+04
5.998816243E+00  1.064895898E+04
6.014581857E+00  1.068935449E+04
6.030347471E+00  1.071172754E+04
6.046113086E+00  1.071928516E+04
6.061878700E+00  1.074745215E+04
6.077644314E+00  1.075367480E+04
6.093409928E+00  1.080083789E+04
6.109175543E+00  1.078676172E+04
6.124941157E+00  1.079935254E+04
6.140706771E+00  1.079045703E+04
6.156472386E+00  1.081846484E+04
6.172238000E+00  1.082799023E+04
6.188003614E+00  1.084724902E+04
6.203769229E+00  1.085385352E+04
6.219534843E+00  1.086902930E+04
6.235300457E+00  1.090330176E+04
6.251066072E+00  1.091302637E+04
6.266831686E+00  1.094036719E+04
6.282597300E+00  1.095802344E+04
6.298362914E+00  1.099219727E+04
6.314128529E+00  1.099776953E+04
6.329894143E+00  1.103197754E+04
6.345659757E+00  1.101771777E+04
6.361425372E+00  1.104306641E+04
6.377190986E+00  1.103946387E+04
6.392956600E+00  1.106607031E+04
6.408722215E+00  1.110597559E+04
6.424487829E+00  1.114193555E+04
6.440253443E+00  1.116381055E+04
6.456019057E+00  1.117809668E+04
6.471784672E+00  1.120266895E+04
6.487550286E+00  1.122925977E+04
6.503315900E+00  1.124290625E+04
6.519081515E+00  1.124051172E+04
6.534847129E+00  1.123354590E+04
6.550612743E+00  1.125949707E+04
6.566378358E+00  1.125183008E+04
6.582143972E+00  1.127690332E+04
6.597909586E+00  1.128536328E+04
6.613675200E+00  1.130687500E+04
6.629440815E+00  1.130833203E+04
6.645206429E+00  1.130770605E+04
6.660972043E+00  1.132595703E+04
6.676737658E+00  1.132460449E+04
6.692503272E+00  1.135196973E+04
6.708268886E+00  1.138039648E+04
6.724034501E+00  1.140167676E+04
6.739800115E+00  1.141861133E+04
6.755565729E+00  1.142988379E+04
6.771331343E+00  1.146725977E+04
6.787096958E+00  1.150521387E+04
6.802862572E+00  1.153025781E+04
6.818628186E+00  1.152383301E+04
6.834393801E+00  1.154728027E+04
6.850159415E+00  1.156337402E+04
6.865925029E+00  1.161274902E+04
6.881690644E+00  1.165110645E+04
6.897456258E+00  1.166064746E+04
6.913221872E+00  1.168176074E+04
6.928987486E+00  1.170067090E+04
6.944753101E+00  1.174287109E+04
6.960518715E+00  1.174175000E+04
6.976284329E+00  1.176611719E+04
6.992049944E+00  1.177357227E+04
7.007815558E+00  1.182557617E+04
7.023581172E+00  1.186204199E+04
7.039346787E+00  1.191487402E+04
7.055112401E+00  1.194322656E+04
7.070878015E+00  1.197355957E+04
7.086643629E+00  1.200051855E+04
7.102409244E+00  1.204245410E+04
7.118174858E+00  1.208901953E+04
7.133940472E+00  1.213546582E+04
7.149706087E+00  1.217359473E+04
7.165471701E+00  1.218077637E+04
7.181237315E+00  1.218250488E+04
7.197002930E+00  1.220117090E+04
7.212768544E+00  1.221618945E+04
7.228534158E+00  1.223054980E+04
7.244299773E+00  1.222141992E+04
7.260065387E+00  1.223848926E+04
7.275831001E+00  1.223069043E+04
7.291596615E+00  1.224689160E+04
7.307362230E+00  1.222948828E+04
7.323127844E+00  1.224808691E+04
7.338893458E+00  1.225452148E+04
7.354659073E+00  1.228198926E+04
7.370424687E+00  1.229801074E+04
7.386190301E+00  1.231325391E+04
7.401955916E+00  1.234654004E+04
7.417721530E+00  1.233511035E+04
7.433487144E+00  1.231138770E+04
7.449252758E+00  1.232526465E+04
7.465018373E+00  1.237372656E+04
7.480783987E+00  1.241981738E+04
7.496549601E+00  1.244646191E+04
7.512315216E+00  1.247301660E+04
7.528080830E+00  1.250025977E+04
7.543846444E+00  1.255016797E+04
7.559612059E+00  1.261388281E+04
7.575377673E+00  1.267063184E+04
7.591143287E+00  1.274204590E+04
7.606908901E+00  1.280446387E+04
7.622674516E+00  1.287425293E+04
7.638440130E+00  1.295254590E+04
7.654205744E+00  1.301097949E+04
7.669971359E+00  1.306945312E+04
7.685736973E+00  1.309732617E+04
7.701502587E+00  1.311923730E+04
7.717268202E+00  1.310593262E+04
7.733033816E+00  1.310471582E+04
7.748799430E+00  1.309100488E+04
7.764565044E+00  1.311724805E+04
7.780330659E+00  1.311096973E+04
7.796096273E+00  1.312996680E+04
7.811861887E+00  1.313115820E+04
7.827627502E+00  1.316812988E+04
7.843393116E+00  1.320492676E+04
7.859158730E+00  1.322633008E+04
7.874924345E+00  1.326307715E+04
7.890689959E+00  1.329160938E+04
7.906455573E+00  1.332230078E+04
7.922221187E+00  1.337184180E+04
7.937986802E+00  1.341173828E+04
7.953752416E+00  1.346332617E+04
7.969518030E+00  1.354894531E+04
7.985283645E+00  1.365491113E+04
8.001049259E+00  1.375504102E+04
8.016814873E+00  1.383725488E+04
8.032580488E+00  1.391775391E+04
8.048346102E+00  1.399001270E+04
8.064111716E+00  1.406783789E+04
8.079877330E+00  1.416064844E+04
8.095642945E+00  1.424465039E+04
8.111408559E+00  1.432673535E+04
8.127174173E+00  1.441987207E+04
8.142939788E+00  1.452887793E+04
8.158705402E+00  1.461838281E+04
8.174471016E+00  1.471435059E+04
8.190236631E+00  1.478771289E+04
8.206002245E+00  1.483173438E+04
8.221767859E+00  1.477539551E+04
8.237533474E+00  1.470144727E+04
8.253299088E+00  1.458462402E+04
8.269064702E+00  1.445677832E+04
8.284830316E+00  1.428041797E+04
8.300595931E+00  1.405907129E+04
8.316361545E+00  1.374980176E+04
8.332127159E+00  1.364435742E+04
8.347892774E+00  1.373054492E+04
8.363658388E+00  1.375241113E+04
8.379424002E+00  1.375341992E+04
8.395189617E+00  1.373793750E+04
8.410955231E+00  1.374206641E+04
8.426720845E+00  1.374321484E+04
8.442486459E+00  1.377436133E+04
8.458252074E+00  1.377890234E+04
8.474017688E+00  1.380422754E+04
8.489783302E+00  1.379298730E+04
8.505548917E+00  1.381089941E+04
8.521314531E+00  1.383375879E+04
8.537080145E+00  1.384761719E+04
8.552845760E+00  1.387742090E+04
8.568611374E+00  1.392901953E+04
8.584376988E+00  1.398540430E+04
8.600142602E+00  1.403293457E+04
8.615908217E+00  1.408488477E+04
8.631673831E+00  1.410826074E+04
8.647439445E+00  1.403366113E+04
8.663205060E+00  1.384165332E+04
8.678970674E+00  1.385340527E+04
8.694736288E+00  1.399357227E+04
8.710501903E+00  1.407614941E+04
8.726267517E+00  1.410783496E+04
8.742033131E+00  1.414520410E+04
8.757798745E+00  1.415539844E+04
8.773564360E+00  1.417021582E+04
8.789329974E+00  1.420052734E+04
8.805095588E+00  1.426661719E+04
8.820861203E+00  1.430700684E+04
8.836626817E+00  1.434078027E+04
8.852392431E+00  1.437151367E+04
8.868158046E+00  1.441727344E+04
8.883923660E+00  1.445350391E+04
8.899689274E+00  1.449219336E+04
8.915454888E+00  1.455213281E+04
8.931220503E+00  1.458306250E+04
8.946986117E+00  1.459571680E+04
8.962751731E+00  1.459800293E+04
8.978517346E+00  1.458085840E+04
8.994282960E+00  1.455694922E+04
9.010048574E+00  1.452925195E+04
9.025814189E+00  1.452695703E+04
9.041579803E+00  1.449264062E+04
9.057345417E+00  1.448183789E+04
9.073111031E+00  1.444821484E+04
9.088876646E+00  1.445465723E+04
9.104642260E+00  1.443398730E+04
9.120407874E+00  1.446088867E+04
9.136173489E+00  1.445734570E+04
9.151939103E+00  1.445723730E+04
9.167704717E+00  1.443279102E+04
9.183470332E+00  1.444077246E+04
9.199235946E+00  1.445360059E+04
9.215001560E+00  1.448352051E+04
9.230767175E+00  1.450431836E+04
9.246532789E+00  1.453730664E+04
9.262298403E+00  1.455267383E+04
9.278064017E+00  1.455666504E+04
9.293829632E+00  1.456960742E+04
9.309595246E+00  1.458040137E+04
9.325360860E+00  1.459043164E+04
9.341126475E+00  1.457240820E+04
9.356892089E+00  1.458031152E+04
9.372657703E+00  1.455087695E+04
9.388423318E+00  1.455020312E+04
9.404188932E+00  1.454066406E+04
9.419954546E+00  1.454791699E+04
9.435720160E+00  1.456076855E+04
9.451485775E+00  1.459946289E+04
9.467251389E+00  1.463061328E+04
9.483017003E+00  1.464849316E+04
9.498782618E+00  1.465719336E+04
9.514548232E+00  1.466688086E+04
9.530313846E+00  1.469633398E+04
9.546079461E+00  1.472302637E+04
9.561845075E+00  1.474996973E+04
9.577610689E+00  1.477426172E+04
9.593376303E+00  1.479977637E+04
9.609141918E+00  1.482884961E+04
9.624907532E+00  1.484056348E+04
9.640673146E+00  1.484417090E+04
9.656438761E+00  1.485597559E+04
9.672204375E+00  1.488383301E+04
9.687969989E+00  1.491263477E+04
9.703735604E+00  1.495180371E+04
9.719501218E+00  1.497851270E+04
9.735266832E+00  1.502382617E+04
9.751032446E+00  1.505858008E+04
9.766798061E+00  1.510828418E+04
9.782563675E+00  1.512742773E+04
9.798329289E+00  1.514618262E+04
9.814094904E+00  1.517974609E+04
9.829860518E+00  1.523659961E+04
9.845626132E+00  1.526573438E+04
9.861391747E+00  1.527875781E+04
9.877157361E+00  1.528092871E+04
9.892922975E+00  1.527766211E+04
9.908688589E+00  1.525953027E+04
9.924454204E+00  1.525813770E+04
9.940219818E+00  1.524383203E+04
9.955985432E+00  1.525169531E+04
9.971751047E+00  1.526733594E+04
9.987516661E+00  1.527419531E+04
1.000328228E+01  1.530702539E+04
1.001904789E+01  1.535763574E+04
1.003481350E+01  1.539315527E+04
1.005057912E+01  1.542293652E+04
1.006634473E+01  1.546414453E+04
1.008211035E+01  1.548419336E+04
1.009787596E+01  1.551384180E+04
1.011364158E+01  1.553015039E+04
1.012940719E+01  1.555543750E+04
1.014517280E+01  1.551582520E+04
1.016093842E+01  1.537649219E+04
1.017670403E+01  1.526189551E+04
1.019246965E+01  1.520093652E+04
1.020823526E+01  1.513580078E+04
1.022400088E+01  1.508274805E+04
1.023976649E+01  1.501559766E+04
1.025553210E+01  1.495655469E+04
1.027129772E+01  1.490963867E+04
1.028706333E+01  1.490554785E+04
1.030282895E+01  1.489444727E+04
1.031859456E+01  1.490583301E+04
1.033436018E+01  1.489530664E+04
1.035012579E+01  1.491509668E+04
1.036589140E+01  1.491276465E+04
1.038165702E+01  1.495265723E+04
1.039742263E+01  1.496409961E+04
1.041318825E+01  1.498445801E+04
1.042895386E+01  1.494294336E+04
1.044471948E+01  1.491428320E+04
1.046048509E+01  1.483022852E+04
1.047625070E+01  1.479808398E+04
1.049201632E+01  1.471843555E+04
1.050778193E+01  1.470569922E+04
1.052354755E+01  1.465033984E+04
1.053931316E+01  1.463329492E+04
1.055507878E+01  1.455193652E+04
1.057084439E+01  1.451443848E+04
1.058661000E+01  1.446256348E+04
1.060237562E+01  1.447370801E+04
1.061814123E+01  1.446856641E+04
1.063390685E+01  1.444682520E+04
1.064967246E+01  1.441095605E+04
1.066543808E+01  1.438901855E+04
1.068120369E+01  1.437383594E+04
1.069696930E+01  1.436258008E+04
1.071273492E+01  1.437113965E+04
1.072850053E+01  1.454068164E+04
1.074426615E+01  1.464148828E+04
1.076003176E+01  1.473928516E+04
1.077579738E+01  1.478149609E+04
1.079156299E+01  1.484607520E+04
1.080732860E+01  1.489052246E+04
1.082309422E+01  1.497382129E+04
1.083885983E+01  1.504421777E+04
1.085462545E+01  1.510111719E+04
1.087039106E+01  1.514042773E+04
1.088615668E+01  1.519543750E+04
1.090192229E+01  1.523840332E+04
1.091768790E+01  1.528173730E+04
1.093345352E+01  1.532974805E+04
1.094921913E+01  1.537838574E+04
1.096498475E+01  1.541393457E+04
1.098075036E+01  1.547059375E+04
1.099651598E+01  1.553720996E+04
1.101228159E+01  1.558943164E+04
1.102804720E+01  1.562378516E+04
1.104381282E+01  1.554325488E+04
1.105957843E+01  1.542172070E+04
1.107534405E+01  1.537595215E+04
1.109110966E+01  1.531902148E+04
1.110687528E+01  1.527541895E+04
1.112264089E+01  1.522528711E+04
1.113840650E+01  1.521020117E+04
1.115417212E+01  1.516851172E+04
1.116993773E+01  1.511621777E+04
1.118570335E+01  1.503222949E+04
1.120146896E+01  1.498968066E+04
1.121723458E+01  1.494590332E+04
1.123300019E+01  1.493472656E+04
1.124876581E+01  1.486473633E+04
1.126453142E+01  1.484782422E+04
1.128029703E+01  1.479837598E+04
1.129606265E+01  1.480531543E+04
1.131182826E+01  1.477443652E+04
1.132759388E+01  1.478629004E+04
1.134335949E+01  1.475768750E+04
1.135912511E+01  1.477002930E+04
1.137489072E+01  1.477592871E+04
1.139065633E+01  1.480556250E+04
1.140642195E+01  1.487847559E+04
1.142218756E+01  1.504179199E+04
1.143795318E+01  1.540594141E+04
1.145371879E+01  1.594357031E+04
1.146948441E+01  1.659159570E+04
1.148525002E+01  1.692184180E+04
1.150101563E+01  1.673381836E+04
1.151678125E+01  1.610562988E+04
1.153254686E+01  1.544918652E+04
1.154831248E+01  1.498043652E+04
1.156407809E+01  1.476764355E+04
1.157984371E+01  1.464325195E+04
1.159560932E+01  1.456225293E+04
1.161137493E+01  1.462820898E+04
1.162714055E+01  1.474624805E+04
1.164290616E+01  1.483403906E+04
1.165867178E+01  1.490945508E+04
1.167443739E+01  1.498020605E+04
1.169020301E+01  1.504029883E+04
1.170596862E+01  1.510208984E+04
1.172173423E+01  1.516237695E+04
1.173749985E+01  1.519335645E+04
1.175326546E+01  1.520830469E+04
1.176903108E+01  1.522319824E+04
1.178479669E+01  1.524316992E+04
1.180056231E+01  1.527143555E+04
1.181632792E+01  1.530618848E+04
1.183209353E+01  1.533745801E+04
1.184785915E+01  1.538081152E+04
1.186362476E+01  1.542472461E+04
1.187939038E+01  1.546859961E+04
1.189515599E+01  1.551515918E+04
1.191092161E+01  1.552649219E+04
1.192668722E+01  1.554946094E+04
1.194245283E+01  1.557459570E+04
1.195821845E+01  1.558479785E+04
1.197398406E+01  1.559668164E+04
1.198974968E+01  1.564685938E+04
1.200551529E+01  1.566858691E+04
1.202128091E+01  1.567476367E+04
1.203704652E+01  1.569404297E+04
1.205281213E+01  1.572234375E+04
1.206857775E+01  1.575687305E+04
1.208434336E+01  1.577605762E+04
1.210010898E+01  1.580608398E+04
1.211587459E+01  1.583409082E+04
1.213164021E+01  1.586329688E+04
1.214740582E+01  1.588355078E+04
1.216317143E+01  1.589822949E+04
1.217893705E+01  1.592121680E+04
1.219470266E+01  1.594345117E+04
1.221046828E+01  1.594663477E+04
1.222623389E+01  1.594864258E+04
1.224199951E+01  1.594886133E+04
1.225776512E+01  1.595150195E+04
1.227353073E+01  1.595594434E+04
1.228929635E+01  1.595480371E+04
1.230506196E+01  1.597092188E+04
1.232082758E+01  1.597746777E+04
1.233659319E+01  1.599065625E+04
1.235235881E+01  1.599294043E+04
1.236812442E+01  1.601311426E+04
1.238389003E+01  1.603107715E+04
1.239965565E+01  1.606042578E+04
1.241542126E+01  1.609823535E+04
1.243118688E+01  1.611693848E+04
1.244695249E+01  1.613874609E+04
1.246271811E+01  1.616253125E+04
1.247848372E+01  1.619018164E+04
1.249424933E+01  1.620700000E+04
1.251001495E+01  1.625304688E+04
1.252578056E+01  1.629104492E+04
1.254154618E+01  1.632397168E+04
1.255731179E+01  1.632207129E+04
1.257307741E+01  1.632811426E+04
1.258884302E+01  1.634603906E+04
1.260460864E+01  1.635962109E+04
1.262037425E+01  1.636316797E+04
1.263613986E+01  1.635284277E+04
1.265190548E+01  1.634333203E+04
1.266767109E+01  1.635172754E+04
1.268343671E+01  1.636777051E+04
1.269920232E+01  1.637621289E+04
1.271496794E+01  1.637329492E+04
1.273073355E+01  1.638066113E+04
1.274649916E+01  1.639518359E+04
1.276226478E+01  1.642924219E+04
1.277803039E+01  1.646021094E+04
1.279379601E+01  1.646314258E+04
1.280956162E+01  1.643678320E+04
1.282532724E+01  1.644850195E+04
1.284109285E+01  1.645026367E+04
1.285685846E+01  1.645449414E+04
1.287262408E+01  1.644476172E+04
1.288838969E+01  1.645054297E+04
1.290415531E+01  1.646184961E+04
1.291992092E+01  1.647753125E+04
1.293568654E+01  1.647539062E+04
1.295145215E+01  1.650054492E+04
1.296721776E+01  1.649931250E+04
1.298298338E+01  1.651302734E+04
1.299874899E+01  1.651710742E+04
1.301451461E+01  1.654266992E+04
1.303028022E+01  1.655609766E+04
1.304604584E+01  1.658355273E+04
1.306181145E+01  1.660926953E+04
1.307757706E+01  1.664013867E+04
1.309334268E+01  1.664853516E+04
1.310910829E+01  1.667865039E+04
1.312487391E+01  1.671124219E+04
1.314063952E+01  1.675864062E+04
1.315640514E+01  1.678765625E+04
1.317217075E+01  1.685540430E+04
1.318793636E+01  1.689886719E+04
1.320370198E+01  1.696823828E+04
1.321946759E+01  1.704897070E+04
1.323523321E+01  1.712714062E+04
1.325099882E+01  1.715152344E+04
1.326676444E+01  1.715657031E+04
1.328253005E+01  1.710874609E+04
1.329829566E+01  1.706255078E+04
1.331406128E+01  1.698275781E+04
1.332982689E+01  1.696308398E+04
1.334559251E+01  1.692387695E+04
1.336135812E+01  1.691642188E+04
1.337712374E+01  1.692650586E+04
1.339288935E+01  1.694052930E+04
1.340865496E+01  1.694263672E+04
1.342442058E+01  1.693468359E+04
1.344018619E+01  1.693371484E+04
1.345595181E+01  1.698314453E+04
1.347171742E+01  1.702169336E+04
1.348748304E+01  1.707448828E+04
1.350324865E+01  1.707359570E+04
1.351901426E+01  1.708054688E+04
1.353477988E+01  1.711823828E+04
1.355054549E+01  1.716155078E+04
1.356631111E+01  1.715637500E+04
1.358207672E+01  1.717717578E+04
1.359784234E+01  1.717956445E+04
1.361360795E+01  1.721177344E+04
1.362937356E+01  1.722752930E+04
1.364513918E+01  1.725099219E+04
1.366090479E+01  1.727304492E+04
1.367667041E+01  1.729154688E+04
1.369243602E+01  1.729690234E+04
1.370820164E+01  1.726809375E+04
1.372396725E+01  1.723699219E+04
1.373973286E+01  1.722453320E+04
1.375549848E+01  1.721918750E+04
1.377126409E+01  1.718024219E+04
1.378702971E+01  1.711922656E+04
1.380279532E+01  1.707449023E+04
1.381856094E+01  1.705173438E+04
1.383432655E+01  1.705527734E+04
1.385009216E+01  1.702802734E+04
1.386585778E+01  1.699212305E+04
1.388162339E+01  1.696205664E+04
1.389738901E+01  1.695571484E+04
1.391315462E+01  1.694333594E+04
1.392892024E+01  1.692634766E+04
1.394468585E+01  1.690926172E+04
1.396045146E+01  1.691264258E+04
1.397621708E+01  1.691697656E+04
1.399198269E+01  1.689743945E+04
1.400774831E+01  1.687709961E+04
1.402351392E+01  1.684647852E+04
1.403927954E+01  1.682408984E+04
1.405504515E+01  1.681251367E+04
1.407081077E+01  1.681914258E+04
1.408657638E+01  1.681897656E+04
1.410234199E+01  1.681552148E+04
1.411810761E+01  1.681074219E+04
1.413387322E+01  1.679975000E+04
1.414963884E+01  1.679854102E+04
1.416540445E+01  1.679166406E+04
1.418117007E+01  1.680038477E+04
1.419693568E+01  1.679925000E+04
1.421270129E+01  1.680957617E+04
1.422846691E+01  1.679823047E+04
1.424423252E+01  1.681234570E+04
1.425999814E+01  1.681577344E+04
1.427576375E+01  1.682013672E+04
1.429152937E+01  1.680696680E+04
1.430729498E+01  1.681606250E+04
1.432306059E+01  1.682932617E+04
1.433882621E+01  1.682305078E+04
1.435459182E+01  1.681285156E+04
1.437035744E+01  1.681250000E+04
1.438612305E+01  1.682200977E+04
1.440188867E+01  1.684101367E+04
1.441765428E+01  1.685460742E+04
1.443341989E+01  1.685449023E+04
1.444918551E+01  1.684260547E+04
1.446495112E+01  1.685670898E+04
1.448071674E+01  1.687675977E+04
1.449648235E+01  1.689076953E+04
1.451224797E+01  1.691263477E+04
1.452801358E+01  1.694504688E+04
1.454377919E+01  1.696281250E+04
1.455954481E+01  1.697221680E+04
1.457531042E+01  1.696616406E+04
1.459107604E+01  1.700413086E+04
1.460684165E+01  1.701654297E+04
1.462260727E+01  1.702588477E+04
1.463837288E+01  1.702753711E+04
1.465413849E+01  1.703031641E+04
1.466990411E+01  1.702400195E+04
1.468566972E+01  1.703731055E+04
1.470143534E+01  1.705353711E+04
1.471720095E+01  1.706316016E+04
1.473296657E+01  1.703922656E+04
1.474873218E+01  1.702527344E+04
1.476449779E+01  1.699795703E+04
1.478026341E+01  1.701353125E+04
1.479602902E+01  1.700458203E+04
1.481179464E+01  1.701120117E+04
1.482756025E+01  1.698681641E+04
1.484332587E+01  1.696888281E+04
1.485909148E+01  1.693951758E+04
1.487485709E+01  1.690813086E+04
1.489062271E+01  1.685946680E+04
1.490638832E+01  1.686711523E+04
1.492215394E+01  1.685770508E+04
1.493791955E+01  1.687071289E+04
1.495368517E+01  1.684428906E+04
1.496945078E+01  1.684787109E+04
1.498521639E+01  1.681951367E+04
1.500098201E+01  1.683012109E+04
1.501674762E+01  1.680577344E+04
1.503251324E+01  1.681036523E+04
1.504827885E+01  1.679296680E+04
1.506404447E+01  1.676702930E+04
1.507981008E+01  1.674021875E+04
1.509557569E+01  1.673534375E+04
1.511134131E+01  1.671652344E+04
1.512710692E+01  1.670748633E+04
1.514287254E+01  1.667863281E+04
1.515863815E+01  1.668615039E+04
1.517440377E+01  1.666142383E+04
1.519016938E+01  1.666428516E+04
1.520593499E+01  1.664688672E+04
1.522170061E+01  1.663395312E+04
1.523746622E+01  1.658865820E+04
1.525323184E+01  1.657362109E+04
1.526899745E+01  1.655585352E+04
1.528476307E+01  1.657372852E+04
1.530052868E+01  1.656625000E+04
1.531629429E+01  1.657289844E+04
1.533205991E+01  1.653752148E+04
1.534782552E+01  1.653008594E+04
1.536359114E+01  1.650165430E+04
1.537935675E+01  1.650516406E+04
1.539512237E+01  1.648375000E+04
1.541088798E+01  1.649173047E+04
1.542665360E+01  1.647362305E+04
1.544241921E+01  1.646101953E+04
1.545818482E+01  1.642695703E+04
1.547395044E+01  1.643374219E+04
1.548971605E+01  1.640779883E+04
1.550548167E+01  1.639843359E+04
1.552124728E+01  1.636938672E+04
1.553701290E+01  1.636979688E+04
1.555277851E+01  1.636075098E+04
1.556854412E+01  1.637524219E+04
1.558430974E+01  1.635733105E+04
1.560007535E+01  1.634033887E+04
1.561584097E+01  1.632280469E+04
1.563160658E+01  1.631183691E+04
1.564737220E+01  1.630423828E+04
1.566313781E+01  1.629356934E+04
1.567890342E+01  1.626284375E+04
1.569466904E+01  1.625415332E+04
1.571043465E+01  1.622104297E+04
1.572620027E+01  1.619897852E+04
1.574196588E+01  1.618942188E+04
1.575773150E+01  1.620036523E+04
1.577349711E+01  1.619839062E+04
1.578926272E+01  1.618396973E+04
1.580502834E+01  1.615686426E+04
1.582079395E+01  1.613123242E+04
1.583655957E+01  1.612919043E+04
1.585232518E+01  1.612033789E+04
1.586809080E+01  1.613272168E+04
1.588385641E+01  1.611280371E+04
1.589962202E+01  1.608870020E+04
1.591538764E+01  1.608743945E+04
1.593115325E+01  1.607951074E+04
1.594691887E+01  1.606770996E+04
1.596268448E+01  1.606759082E+04
1.597845010E+01  1.603977246E+04
1.599421571E+01  1.600951367E+04
1.600998132E+01  1.599574023E+04
1.602574694E+01  1.598542188E+04
1.604151255E+01  1.599243066E+04
1.605727817E+01  1.598738184E+04
1.607304378E+01  1.598463867E+04
1.608880940E+01  1.598048438E+04
1.610457501E+01  1.595353809E+04
1.612034062E+01  1.593538184E+04
1.613610624E+01  1.592180078E+04
1.615187185E+01  1.593104297E+04
1.616763747E+01  1.591164160E+04
1.618340308E+01  1.590715430E+04
1.619916870E+01  1.589872754E+04
1.621493431E+01  1.587990039E+04
1.623069992E+01  1.584763379E+04
1.624646554E+01  1.583545020E+04
1.626223115E+01  1.583358984E+04
1.627799677E+01  1.581315918E+04
1.629376238E+01  1.580483594E+04
1.630952800E+01  1.581668652E+04
1.632529361E+01  1.580821191E+04
1.634105922E+01  1.577998926E+04
1.635682484E+01  1.578878613E+04
1.637259045E+01  1.581137500E+04
1.638835607E+01  1.581700293E+04
1.640412168E+01  1.579119238E+04
1.641988730E+01  1.577820215E+04
1.643565291E+01  1.576456934E+04
1.645141852E+01  1.575832617E+04
1.646718414E+01  1.576235840E+04
1.648294975E+01  1.576023438E+04
1.649871537E+01  1.574770996E+04
1.651448098E+01  1.574609766E+04
1.653024660E+01  1.571651172E+04
1.654601221E+01  1.571513574E+04
1.656177782E+01  1.572076074E+04
1.657754344E+01  1.572204297E+04
1.659330905E+01  1.570469629E+04
1.660907467E+01  1.568829492E+04
1.662484028E+01  1.567207129E+04
1.664060590E+01  1.565766895E+04
1.665637151E+01  1.564567578E+04
1.667213712E+01  1.566399023E+04
1.668790274E+01  1.565806738E+04
1.670366835E+01  1.564933398E+04
1.671943397E+01  1.562369238E+04
1.673519958E+01  1.561134668E+04
1.675096520E+01  1.559491309E+04
1.676673081E+01  1.558720312E+04
1.678249642E+01  1.556098047E+04
1.679826204E+01  1.557255762E+04
1.681402765E+01  1.557295898E+04
1.682979327E+01  1.555847559E+04
1.684555888E+01  1.554239941E+04
1.686132450E+01  1.555771191E+04
1.687709011E+01  1.554941309E+04
1.689285573E+01  1.552984180E+04
1.690862134E+01  1.552419531E+04
1.692438695E+01  1.552979590E+04
1.694015257E+01  1.553015039E+04
1.695591818E+01  1.553419922E+04
1.697168380E+01  1.554480469E+04
1.698744941E+01  1.553869824E+04
1.700321503E+01  1.552117871E+04
1.701898064E+01  1.551229297E+04
1.703474625E+01  1.548020605E+04
1.705051187E+01  1.543650879E+04
1.706627748E+01  1.540674512E+04
1.708204310E+01  1.545238379E+04
1.709780871E+01  1.546227637E+04
1.711357433E+01  1.546569531E+04
1.712933994E+01  1.545917383E+04
1.714510555E+01  1.545751758E+04
1.716087117E+01  1.547227344E+04
1.717663678E+01  1.546724121E+04
1.719240240E+01  1.546474121E+04
1.720816801E+01  1.544376270E+04
1.722393363E+01  1.542055957E+04
1.723969924E+01  1.542584277E+04
1.725546485E+01  1.543683398E+04
1.727123047E+01  1.542835156E+04
1.728699608E+01  1.541129004E+04
1.730276170E+01  1.538471777E+04
1.731852731E+01  1.537827148E+04
1.733429293E+01  1.538282617E+04
1.735005854E+01  1.534429980E+04
1.736582415E+01  1.532393164E+04
1.738158977E+01  1.529872754E+04
1.739735538E+01  1.528106055E+04
1.741312100E+01  1.527890723E+04
1.742888661E+01  1.526644336E+04
1.744465223E+01  1.524958105E+04
1.746041784E+01  1.522726562E+04
1.747618345E+01  1.522800000E+04
1.749194907E+01  1.522256152E+04
1.750771468E+01  1.520175293E+04
1.752348030E+01  1.517789453E+04
1.753924591E+01  1.516625879E+04
1.755501153E+01  1.516662109E+04
1.757077714E+01  1.514651465E+04
1.758654275E+01  1.512958105E+04
1.760230837E+01  1.510141211E+04
1.761807398E+01  1.509207715E+04
1.763383960E+01  1.508153906E+04
1.764960521E+01  1.506526367E+04
1.766537083E+01  1.504906348E+04
1.768113644E+01  1.502546875E+04
1.769690205E+01  1.499774023E+04
1.771266767E+01  1.497444336E+04
1.772843328E+01  1.495658008E+04
1.774419890E+01  1.494849121E+04
1.775996451E+01  1.495234082E+04
1.777573013E+01  1.494082910E+04
1.779149574E+01  1.491741016E+04
1.780726135E+01  1.490713965E+04
1.782302697E+01  1.487422949E+04
1.783879258E+01  1.484507617E+04
1.785455820E+01  1.483243652E+04
1.787032381E+01  1.481815918E+04
1.788608943E+01  1.481894043E+04
1.790185504E+01  1.479781641E+04
1.791762065E+01  1.482699609E+04
1.793338627E+01  1.481560449E+04
1.794915188E+01  1.479159473E+04
1.796491750E+01  1.475027148E+04
1.798068311E+01  1.471235840E+04
1.799644873E+01  1.469374512E+04
1.801221434E+01  1.469101562E+04
1.802797995E+01  1.468549902E+04
1.804374557E+01  1.468725977E+04
1.805951118E+01  1.466876562E+04
1.807527680E+01  1.463758496E+04
1.809104241E+01  1.461257422E+04
1.810680803E+01  1.460512891E+04
1.812257364E+01  1.460611035E+04
1.813833925E+01  1.457428027E+04
1.815410487E+01  1.455578320E+04
1.816987048E+01  1.454815723E+04
1.818563610E+01  1.453629883E+04
1.820140171E+01  1.452327539E+04
1.821716733E+01  1.450016992E+04
1.823293294E+01  1.447093555E+04
1.824869856E+01  1.445796973E+04
1.826446417E+01  1.444171582E+04
1.828022978E+01  1.445174707E+04
1.829599540E+01  1.444874512E+04
1.831176101E+01  1.442502539E+04
1.832752663E+01  1.440031348E+04
1.834329224E+01  1.437168066E+04
1.835905786E+01  1.435091113E+04
1.837482347E+01  1.435034473E+04
1.839058908E+01  1.434812695E+04
1.840635470E+01  1.434460742E+04
1.842212031E+01  1.430578125E+04
1.843788593E+01  1.429670020E+04
1.845365154E+01  1.429366016E+04
1.846941716E+01  1.428291113E+04
1.848518277E+01  1.428214648E+04
1.850094838E+01  1.426733301E+04
1.851671400E+01  1.424749902E+04
1.853247961E+01  1.421814160E+04
1.854824523E+01  1.417445020E+04
1.856401084E+01  1.416182617E+04
1.857977646E+01  1.413673828E+04
1.859554207E+01  1.412131445E+04
1.861130768E+01  1.412138965E+04
1.862707330E+01  1.408933398E+04
1.864283891E+01  1.407521289E+04
1.865860453E+01  1.406965430E+04
1.867437014E+01  1.406119727E+04
1.869013576E+01  1.404658984E+04
1.870590137E+01  1.402878516E+04
1.872166698E+01  1.401000195E+04
1.873743260E+01  1.400714746E+04
1.875319821E+01  1.399311230E+04
1.876896383E+01  1.397220117E+04
1.878472944E+01  1.394562988E+04
1.880049506E+01  1.390234473E+04
1.881626067E+01  1.390835840E+04
1.883202628E+01  1.390652637E+04
1.884779190E+01  1.388500488E+04
1.886355751E+01  1.388981543E+04
1.887932313E+01  1.388231934E+04
1.889508874E+01  1.387610742E+04
1.891085436E+01  1.384201172E+04
1.892661997E+01  1.382327441E+04
1.894238558E+01  1.379882324E+04
1.895815120E+01  1.379874219E+04
1.897391681E+01  1.377612695E+04
1.898968243E+01  1.376734863E+04
1.900544804E+01  1.375101855E+04
1.902121366E+01  1.375019531E+04
1.903697927E+01  1.376188281E+04
1.905274488E+01  1.373303418E+04
1.906851050E+01  1.373537988E+04
1.908427611E+01  1.372712109E+04
1.910004173E+01  1.374642676E+04
1.911580734E+01  1.373576758E+04
1.913157296E+01  1.372331250E+04
1.914733857E+01  1.373574219E+04
1.916310418E+01  1.371585449E+04
1.917886980E+01  1.371892969E+04
1.919463541E+01  1.371755371E+04
1.921040103E+01  1.372221777E+04
1.922616664E+01  1.372961719E+04
1.924193226E+01  1.371936914E+04
1.925769787E+01  1.374835840E+04
1.927346348E+01  1.373478711E+04
1.928922910E+01  1.373584180E+04
1.930499471E+01  1.373162891E+04
1.932076033E+01  1.372991895E+04
1.933652594E+01  1.372577930E+04
1.935229156E+01  1.371786523E+04
1.936805717E+01  1.371430664E+04
1.938382278E+01  1.369997949E+04
1.939958840E+01  1.370861816E+04
1.941535401E+01  1.369550781E+04
1.943111963E+01  1.370292969E+04
1.944688524E+01  1.370734375E+04
1.946265086E+01  1.374989062E+04
1.947841647E+01  1.378356445E+04
1.949418208E+01  1.376910449E+04
1.950994770E+01  1.376804590E+04
1.952571331E+01  1.377991797E+04
1.954147893E+01  1.380047461E+04
1.955724454E+01  1.380979395E+04
1.957301016E+01  1.378695801E+04
1.958877577E+01  1.378503125E+04
1.960454138E+01  1.378179785E+04
1.962030700E+01  1.379124219E+04
1.963607261E+01  1.379475195E+04
1.965183823E+01  1.377993945E+04
1.966760384E+01  1.377958789E+04
1.968336946E+01  1.379495898E+04
1.969913507E+01  1.378533203E+04
1.971490069E+01  1.378790137E+04
1.973066630E+01  1.379786621E+04
1.974643191E+01  1.382043750E+04
1.976219753E+01  1.382642480E+04
1.977796314E+01  1.385824805E+04
1.979372876E+01  1.386536523E+04
1.980949437E+01  1.386284180E+04
1.982525999E+01  1.386884863E+04
1.984102560E+01  1.388837598E+04
1.985679121E+01  1.389483105E+04
1.987255683E+01  1.388386328E+04
1.988832244E+01  1.389416992E+04
1.990408806E+01  1.389692188E+04
1.991985367E+01  1.390973730E+04
1.993561929E+01  1.390526855E+04
1.995138490E+01  1.389895605E+04
1.996715051E+01  1.388087695E+04
1.998291613E+01  1.388528809E+04
1.999868174E+01  1.386838379E+04
2.001444736E+01  1.386219043E+04
2.003021297E+01  1.383993848E+04
2.004597859E+01  1.384159961E+04
2.006174420E+01  1.382816797E+04
2.007750981E+01  1.382959180E+04
2.009327543E+01  1.379992578E+04
2.010904104E+01  1.377548340E+04
2.012480666E+01  1.376045410E+04
2.014057227E+01  1.376279492E+04
2.015633789E+01  1.375479883E+04
2.017210350E+01  1.374705469E+04
2.018786911E+01  1.372119629E+04
2.020363473E+01  1.369521680E+04
2.021940034E+01  1.367529297E+04
2.023516596E+01  1.367441406E+04
2.025093157E+01  1.367725879E+04
2.026669719E+01  1.367432715E+04
2.028246280E+01  1.364824121E+04
2.029822841E+01  1.362176953E+04
2.031399403E+01  1.358979199E+04
2.032975964E+01  1.355343555E+04
2.034552526E+01  1.353652930E+04
2.036129087E+01  1.353860449E+04
2.037705649E+01  1.354133008E+04
2.039282210E+01  1.354609082E+04
2.040858771E+01  1.354233105E+04
2.042435333E+01  1.352175684E+04
2.044011894E+01  1.351027539E+04
2.045588456E+01  1.351304395E+04
2.047165017E+01  1.350278223E+04
2.048741579E+01  1.349162793E+04
2.050318140E+01  1.348597363E+04
2.051894701E+01  1.348726562E+04
2.053471263E+01  1.348922949E+04
2.055047824E+01  1.347829590E+04
2.056624386E+01  1.345834277E+04
2.058200947E+01  1.344667480E+04
2.059777509E+01  1.343917480E+04
2.061354070E+01  1.343059375E+04
2.062930631E+01  1.341079102E+04
2.064507193E+01  1.339153223E+04
2.066083754E+01  1.336470410E+04
2.067660316E+01  1.335384473E+04
2.069236877E+01  1.335209570E+04
2.070813439E+01  1.335402637E+04
2.072390000E+01  1.334667090E+04
2.073966561E+01  1.334325879E+04
2.075543123E+01  1.334349316E+04
2.077119684E+01  1.332840332E+04
2.078696246E+01  1.332392383E+04
2.080272807E+01  1.328913477E+04
2.081849369E+01  1.325499219E+04
2.083425930E+01  1.324158887E+04
2.085002491E+01  1.325339258E+04
2.086579053E+01  1.326268457E+04
2.088155614E+01  1.325103711E+04
2.089732176E+01  1.321794531E+04
2.091308737E+01  1.320612891E+04
2.092885299E+01  1.321546289E+04
2.094461860E+01  1.321387500E+04
2.096038421E+01  1.318841992E+04
2.097614983E+01  1.317123242E+04
2.099191544E+01  1.317870410E+04
2.100768106E+01  1.315485547E+04
2.102344667E+01  1.314638965E+04
2.103921229E+01  1.313407617E+04
2.105497790E+01  1.312697070E+04
2.107074351E+01  1.310124414E+04
2.108650913E+01  1.310639062E+04
2.110227474E+01  1.309077637E+04
2.111804036E+01  1.310148242E+04
2.113380597E+01  1.309662012E+04
2.114957159E+01  1.307930762E+04
2.116533720E+01  1.304778516E+04
2.118110282E+01  1.303846777E+04
2.119686843E+01  1.302478125E+04
2.121263404E+01  1.303148828E+04
2.122839966E+01  1.305258496E+04
2.124416527E+01  1.304469434E+04
2.125993089E+01  1.302162988E+04
2.127569650E+01  1.299080078E+04
2.129146212E+01  1.297697656E+04
2.130722773E+01  1.296722266E+04
2.132299334E+01  1.295972266E+04
2.133875896E+01  1.296146191E+04
2.135452457E+01  1.295902246E+04
2.137029019E+01  1.296349902E+04
2.138605580E+01  1.296011035E+04
2.140182142E+01  1.292764062E+04
2.141758703E+01  1.289524902E+04
2.143335264E+01  1.285355859E+04
2.144911826E+01  1.286440234E+04
2.146488387E+01  1.288128125E+04
2.148064949E+01  1.284970801E+04
2.149641510E+01  1.279415723E+04
2.151218072E+01  1.273832422E+04
2.152794633E+01  1.275765527E+04
2.154371194E+01  1.280494043E+04
2.155947756E+01  1.281606055E+04
2.157524317E+01  1.283262988E+04
2.159100879E+01  1.283137109E+04
2.160677440E+01  1.282204785E+04
2.162254002E+01  1.278848047E+04
2.163830563E+01  1.278504004E+04
2.165407124E+01  1.279479297E+04
2.166983686E+01  1.280084082E+04
2.168560247E+01  1.280261816E+04
2.170136809E+01  1.276450781E+04
2.171713370E+01  1.274251758E+04
2.173289932E+01  1.274736719E+04
2.174866493E+01  1.275646094E+04
2.176443054E+01  1.273542090E+04
2.178019616E+01  1.270904395E+04
2.179596177E+01  1.267401270E+04
2.181172739E+01  1.265187695E+04
2.182749300E+01  1.262712988E+04
2.184325862E+01  1.264868457E+04
2.185902423E+01  1.267176758E+04
2.187478984E+01  1.269722656E+04
2.189055546E+01  1.267271680E+04
2.190632107E+01  1.265657812E+04
2.192208669E+01  1.264180566E+04
2.193785230E+01  1.262100293E+04
2.195361792E+01  1.261001953E+04
2.196938353E+01  1.259119434E+04
2.198514914E+01  1.258248145E+04
2.200091476E+01  1.254794824E+04
2.201668037E+01  1.255213281E+04
2.203244599E+01  1.255602051E+04
2.204821160E+01  1.254689648E+04
2.206397722E+01  1.254132910E+04
2.207974283E+01  1.252881445E+04
2.209550844E+01  1.252885938E+04
2.211127406E+01  1.252086426E+04
2.212703967E+01  1.250937402E+04
2.214280529E+01  1.247598047E+04
2.215857090E+01  1.246492383E+04
2.217433652E+01  1.250707031E+04
2.219010213E+01  1.253553809E+04
2.220586774E+01  1.246890430E+04
2.222163336E+01  1.239903223E+04
2.223739897E+01  1.237478320E+04
2.225316459E+01  1.236697266E+04
2.226893020E+01  1.237019824E+04
2.228469582E+01  1.236562695E+04
2.230046143E+01  1.237953125E+04
2.231622704E+01  1.237082812E+04
2.233199266E+01  1.238349609E+04
2.234775827E+01  1.238867578E+04
2.236352389E+01  1.237351367E+04
2.237928950E+01  1.233440918E+04
2.239505512E+01  1.235479980E+04
2.241082073E+01  1.235539551E+04
2.242658634E+01  1.235923828E+04
2.244235196E+01  1.235622266E+04
2.245811757E+01  1.232950586E+04
2.247388319E+01  1.227241016E+04
2.248964880E+01  1.223829980E+04
2.250541442E+01  1.223213867E+04
2.252118003E+01  1.222319629E+04
2.253694565E+01  1.221893555E+04
2.255271126E+01  1.219830469E+04
2.256847687E+01  1.218271191E+04
2.258424249E+01  1.219240039E+04
2.260000810E+01  1.220338672E+04
2.261577372E+01  1.218175488E+04
2.263153933E+01  1.216030957E+04
2.264730495E+01  1.218029395E+04
2.266307056E+01  1.216617090E+04
2.267883617E+01  1.210391016E+04
2.269460179E+01  1.209516699E+04
2.271036740E+01  1.214519629E+04
2.272613302E+01  1.215745898E+04
2.274189863E+01  1.214311523E+04
2.275766425E+01  1.209552930E+04
2.277342986E+01  1.209672852E+04
2.278919547E+01  1.209556934E+04
2.280496109E+01  1.211617676E+04
2.282072670E+01  1.211581641E+04
2.283649232E+01  1.211397266E+04
2.285225793E+01  1.209404980E+04
2.286802355E+01  1.206872754E+04
2.288378916E+01  1.204009570E+04
2.289955477E+01  1.201269043E+04
2.291532039E+01  1.198403223E+04
2.293108600E+01  1.196749316E+04
2.294685162E+01  1.196012891E+04
2.296261723E+01  1.196943555E+04
2.297838285E+01  1.200391504E+04
2.299414846E+01  1.203565625E+04
2.300991407E+01  1.205523145E+04
2.302567969E+01  1.202315332E+04
2.304144530E+01  1.196334570E+04
2.305721092E+01  1.191591992E+04
2.307297653E+01  1.190045117E+04
2.308874215E+01  1.187811133E+04
2.310450776E+01  1.185205371E+04
2.312027337E+01  1.189132715E+04
2.313603899E+01  1.186155859E+04
2.315180460E+01  1.186634570E+04
2.316757022E+01  1.186006055E+04
2.318333583E+01  1.179589551E+04
2.319910145E+01  1.179264648E+04
2.321486706E+01  1.182937695E+04
2.323063267E+01  1.184984863E+04
2.324639829E+01  1.176721484E+04
2.326216390E+01  1.168925391E+04
2.327792952E+01  1.169783105E+04
2.329369513E+01  1.185601562E+04
2.330946075E+01  1.192754785E+04
2.332522636E+01  1.187442871E+04
2.334099197E+01  1.179228418E+04
2.335675759E+01  1.177508203E+04
2.337252320E+01  1.177776270E+04
2.338828882E+01  1.173885352E+04
2.340405443E+01  1.178062598E+04
2.341982005E+01  1.174480371E+04
2.343558566E+01  1.176254688E+04
2.345135127E+01  1.168033496E+04
2.346711689E+01  1.171103906E+04
2.348288250E+01  1.177109766E+04
2.349864812E+01  1.187393848E+04
2.351441373E+01  1.196553125E+04
2.353017935E+01  1.186757422E+04
2.354594496E+01  1.170930957E+04
2.356171057E+01  1.161734082E+04
2.357747619E+01  1.175625000E+04
2.359324180E+01  1.199464844E+04
2.360900742E+01  1.200979785E+04
2.362477303E+01  1.208238867E+04
2.364053865E+01  1.194395020E+04
2.365630426E+01  1.198486133E+04
2.367206987E+01  1.182049219E+04
2.368783549E+01  1.159932129E+04
2.370360110E+01  1.105039941E+04
2.371936672E+01  1.088250879E+04
2.373513233E+01  1.064269824E+04
2.375089795E+01  1.029028613E+04
2.376666356E+01  9.696877930E+03
