# == pyFAI calibration ==
# SplineFile: None
# PixelSize: 1.720e-04, 1.720e-04 m
# PONI: 8.722e-02, 8.342e-02 m
# Distance Sample to Detector: 0.284634930882 m
# Rotations: -0.000251 0.000603 -0.000000 rad
# 
# == Fit2d calibration ==
# Distance Sample-beamCenter: 284.635 mm
# Center: x=485.389, y=508.119 pix
# Tilt: 0.037 deg  TiltPlanRot: 67.409 deg
# 
# Wavelength: 3.344e-11
# Polarization factor: 0.99
# Normalization factor: None
#
# 2th_deg	 I
7.882808091E-03  1.297764130E+02
2.364842239E-02  1.376513062E+02
3.941403669E-02  1.368736725E+02
5.517965100E-02  1.271539001E+02
7.094526530E-02  1.090227661E+02
8.671087960E-02  1.010647125E+02
1.024764939E-01  9.089680481E+01
1.182421082E-01  9.126355743E+01
1.340077225E-01  8.474491882E+01
1.497733368E-01  8.715134430E+01
1.655389511E-01  8.119874573E+01
1.813045654E-01  8.392401123E+01
1.970701797E-01  7.938351440E+01
2.128357940E-01  8.023525238E+01
2.286014083E-01  7.721651459E+01
2.443670226E-01  7.778965759E+01
2.601326369E-01  7.621674347E+01
2.758982512E-01  7.618920898E+01
2.916638655E-01  7.768645477E+01
3.074294798E-01  8.799882507E+01
3.231950941E-01  9.436712646E+01
3.389607084E-01  9.947176361E+01
3.547263227E-01  1.004891510E+02
3.704919370E-01  1.029061203E+02
3.862575513E-01  1.035358582E+02
4.020231656E-01  1.058281860E+02
4.177887799E-01  1.079181900E+02
4.335543942E-01  1.084130020E+02
4.493200085E-01  1.097523270E+02
4.650856228E-01  1.112377319E+02
4.808512371E-01  1.135817719E+02
4.966168514E-01  1.143961182E+02
5.123824657E-01  1.155874405E+02
5.281480800E-01  1.133359680E+02
5.439136943E-01  1.151010284E+02
5.596793086E-01  1.155368805E+02
5.754449229E-01  1.176755219E+02
5.912105372E-01  1.180193329E+02
6.069761516E-01  1.192804947E+02
6.227417659E-01  1.197801819E+02
6.385073802E-01  1.195872345E+02
6.542729945E-01  1.191359558E+02
6.700386088E-01  1.193313446E+02
6.858042231E-01  1.211138763E+02
7.015698374E-01  1.214141235E+02
7.173354517E-01  1.219245911E+02
7.331010660E-01  1.220781403E+02
7.488666803E-01  1.234009247E+02
7.646322946E-01  1.240185776E+02
7.803979089E-01  1.233597565E+02
7.961635232E-01  1.235884094E+02
8.119291375E-01  1.232078018E+02
8.276947518E-01  1.235731583E+02
8.434603661E-01  1.227030945E+02
8.592259804E-01  1.238395615E+02
8.749915947E-01  1.239481812E+02
8.907572090E-01  1.258674774E+02
9.065228233E-01  1.253689728E+02
9.222884376E-01  1.257245102E+02
9.380540519E-01  1.249127731E+02
9.538196662E-01  1.258898087E+02
9.695852805E-01  1.244956284E+02
9.853508948E-01  1.250708847E+02
1.001116509E+00  1.263055573E+02
1.016882123E+00  1.272976074E+02
1.032647738E+00  1.272464371E+02
1.048413352E+00  1.268406601E+02
1.064178966E+00  1.275324020E+02
1.079944581E+00  1.280418396E+02
1.095710195E+00  1.289291077E+02
1.111475809E+00  1.289105377E+02
1.127241424E+00  1.300487518E+02
1.143007038E+00  1.310859222E+02
1.158772652E+00  1.314303284E+02
1.174538266E+00  1.322067413E+02
1.190303881E+00  1.327455139E+02
1.206069495E+00  1.331883240E+02
1.221835109E+00  1.335339813E+02
1.237600724E+00  1.342682953E+02
1.253366338E+00  1.347899933E+02
1.269131952E+00  1.365180817E+02
1.284897567E+00  1.389158630E+02
1.300663181E+00  1.430599213E+02
1.316428795E+00  1.502663269E+02
1.332194409E+00  1.654915771E+02
1.347960024E+00  2.041686249E+02
1.363725638E+00  2.807621460E+02
1.379491252E+00  3.861519470E+02
1.395256867E+00  5.286531982E+02
1.411022481E+00  6.759846802E+02
1.426788095E+00  8.087138672E+02
1.442553710E+00  9.435609131E+02
1.458319324E+00  1.053440430E+03
1.474084938E+00  1.187564209E+03
1.489850552E+00  1.294434082E+03
1.505616167E+00  1.426165161E+03
1.521381781E+00  1.567176270E+03
1.537147395E+00  1.682307983E+03
1.552913010E+00  1.806526367E+03
1.568678624E+00  1.914159790E+03
1.584444238E+00  2.045058105E+03
1.600209853E+00  2.172839600E+03
1.615975467E+00  2.324682373E+03
1.631741081E+00  2.464636230E+03
1.647506695E+00  2.598130615E+03
1.663272310E+00  2.725845947E+03
1.679037924E+00  2.875672119E+03
1.694803538E+00  3.035611084E+03
1.710569153E+00  3.216506104E+03
1.726334767E+00  3.390062012E+03
1.742100381E+00  3.577093018E+03
1.757865996E+00  3.740553955E+03
1.773631610E+00  3.923200928E+03
1.789397224E+00  4.128709473E+03
1.805162838E+00  4.319291016E+03
1.820928453E+00  4.489200684E+03
1.836694067E+00  4.642584961E+03
1.852459681E+00  4.773024902E+03
1.868225296E+00  4.897785156E+03
1.883990910E+00  5.013724121E+03
1.899756524E+00  5.149733398E+03
1.915522139E+00  5.261567383E+03
1.931287753E+00  5.361744141E+03
1.947053367E+00  5.412678223E+03
1.962818981E+00  5.513043457E+03
1.978584596E+00  5.632988770E+03
1.994350210E+00  5.762280762E+03
2.010115824E+00  5.838234375E+03
2.025881439E+00  5.937757324E+03
2.041647053E+00  6.041356445E+03
2.057412667E+00  6.114444336E+03
2.073178282E+00  6.207860840E+03
2.088943896E+00  6.279039551E+03
2.104709510E+00  6.382581055E+03
2.120475125E+00  6.444511719E+03
2.136240739E+00  6.532121094E+03
2.152006353E+00  6.604826172E+03
2.167771967E+00  6.711475098E+03
2.183537582E+00  6.782833984E+03
2.199303196E+00  6.860283691E+03
2.215068810E+00  6.909347656E+03
2.230834425E+00  6.961858398E+03
2.246600039E+00  7.037168945E+03
2.262365653E+00  7.101103027E+03
2.278131268E+00  7.208441895E+03
2.293896882E+00  7.263951660E+03
2.309662496E+00  7.350742676E+03
2.325428110E+00  7.386688477E+03
2.341193725E+00  7.463560059E+03
2.356959339E+00  7.500784668E+03
2.372724953E+00  7.577792480E+03
2.388490568E+00  7.658054199E+03
2.404256182E+00  7.716570312E+03
2.420021796E+00  7.780144043E+03
2.435787411E+00  7.796300781E+03
2.451553025E+00  7.872354004E+03
2.467318639E+00  7.907575195E+03
2.483084253E+00  7.980166504E+03
2.498849868E+00  8.017295410E+03
2.514615482E+00  8.087054199E+03
2.530381096E+00  8.118583984E+03
2.546146711E+00  8.157639160E+03
2.561912325E+00  8.177004395E+03
2.577677939E+00  8.222977539E+03
2.593443554E+00  8.285464844E+03
2.609209168E+00  8.348119141E+03
2.624974782E+00  8.417391602E+03
2.640740396E+00  8.449204102E+03
2.656506011E+00  8.507907227E+03
2.672271625E+00  8.521093750E+03
2.688037239E+00  8.577987305E+03
2.703802854E+00  8.578109375E+03
2.719568468E+00  8.629627930E+03
2.735334082E+00  8.651017578E+03
2.751099697E+00  8.704973633E+03
2.766865311E+00  8.730488281E+03
2.782630925E+00  8.765558594E+03
2.798396539E+00  8.800295898E+03
2.814162154E+00  8.819615234E+03
2.829927768E+00  8.852346680E+03
2.845693382E+00  8.855478516E+03
2.861458997E+00  8.919152344E+03
2.877224611E+00  8.940036133E+03
2.892990225E+00  9.001236328E+03
2.908755840E+00  8.972019531E+03
2.924521454E+00  8.875988281E+03
2.940287068E+00  8.763692383E+03
2.956052682E+00  8.684286133E+03
2.971818297E+00  8.623568359E+03
2.987583911E+00  8.570062500E+03
3.003349525E+00  8.549133789E+03
3.019115140E+00  8.502341797E+03
3.034880754E+00  8.478280273E+03
3.050646368E+00  8.426605469E+03
3.066411983E+00  8.410439453E+03
3.082177597E+00  8.371460938E+03
3.097943211E+00  8.377565430E+03
3.113708825E+00  8.361057617E+03
3.129474440E+00  8.346031250E+03
3.145240054E+00  8.321821289E+03
3.161005668E+00  8.281432617E+03
3.176771283E+00  8.265272461E+03
3.192536897E+00  8.232354492E+03
3.208302511E+00  8.229562500E+03
3.224068126E+00  8.207318359E+03
3.239833740E+00  8.216220703E+03
3.255599354E+00  8.194459961E+03
3.271364969E+00  8.192330078E+03
3.287130583E+00  8.148362305E+03
3.302896197E+00  8.146952637E+03
3.318661811E+00  8.137876465E+03
3.334427426E+00  8.133466309E+03
3.350193040E+00  8.132530273E+03
3.365958654E+00  8.109484375E+03
3.381724269E+00  8.122750000E+03
3.397489883E+00  8.101114746E+03
3.413255497E+00  8.096448242E+03
3.429021112E+00  8.088393555E+03
3.444786726E+00  8.102014160E+03
3.460552340E+00  8.074200684E+03
3.476317954E+00  8.044689941E+03
3.492083569E+00  8.030360352E+03
3.507849183E+00  8.175817871E+03
3.523614797E+00  8.304994141E+03
3.539380412E+00  8.412335938E+03
3.555146026E+00  8.506362305E+03
3.570911640E+00  8.560495117E+03
3.586677255E+00  8.644642578E+03
3.602442869E+00  8.669948242E+03
3.618208483E+00  8.734451172E+03
3.633974097E+00  8.751961914E+03
3.649739712E+00  8.817436523E+03
3.665505326E+00  8.855666992E+03
3.681270940E+00  8.916045898E+03
3.697036555E+00  8.924454102E+03
3.712802169E+00  8.961432617E+03
3.728567783E+00  9.028219727E+03
3.744333398E+00  9.078019531E+03
3.760099012E+00  9.110071289E+03
3.775864626E+00  9.120386719E+03
3.791630240E+00  9.159595703E+03
3.807395855E+00  9.172243164E+03
3.823161469E+00  9.202677734E+03
3.838927083E+00  9.094067383E+03
3.854692698E+00  9.002026367E+03
3.870458312E+00  8.914502930E+03
3.886223926E+00  8.857511719E+03
3.901989541E+00  8.810248047E+03
3.917755155E+00  8.757127930E+03
3.933520769E+00  8.724753906E+03
3.949286383E+00  8.687583008E+03
3.965051998E+00  8.667280273E+03
3.980817612E+00  8.622489258E+03
3.996583226E+00  8.625798828E+03
4.012348841E+00  8.570693359E+03
4.028114455E+00  8.537012695E+03
4.043880069E+00  8.502357422E+03
4.059645684E+00  8.493297852E+03
4.075411298E+00  8.482055664E+03
4.091176912E+00  8.459453125E+03
4.106942526E+00  8.458179688E+03
4.122708141E+00  8.432746094E+03
4.138473755E+00  8.428340820E+03
4.154239369E+00  8.405626953E+03
4.170004984E+00  8.428087891E+03
4.185770598E+00  8.395451172E+03
4.201536212E+00  8.374618164E+03
4.217301827E+00  8.334487305E+03
4.233067441E+00  8.315994141E+03
4.248833055E+00  8.298056641E+03
4.264598670E+00  8.281458984E+03
4.280364284E+00  8.270133789E+03
4.296129898E+00  8.257183594E+03
4.311895512E+00  8.253788086E+03
4.327661127E+00  8.221274414E+03
4.343426741E+00  8.234342773E+03
4.359192355E+00  8.204891602E+03
4.374957970E+00  8.210205078E+03
4.390723584E+00  8.185070801E+03
4.406489198E+00  8.172800781E+03
4.422254813E+00  8.242972656E+03
4.438020427E+00  8.401125977E+03
4.453786041E+00  8.516151367E+03
4.469551655E+00  8.620897461E+03
4.485317270E+00  8.680665039E+03
4.501082884E+00  8.737937500E+03
4.516848498E+00  8.792833984E+03
4.532614113E+00  8.822129883E+03
4.548379727E+00  8.866046875E+03
4.564145341E+00  8.872159180E+03
4.579910956E+00  8.921671875E+03
4.595676570E+00  8.938519531E+03
4.611442184E+00  8.967365234E+03
4.627207798E+00  9.002300781E+03
4.642973413E+00  9.040831055E+03
4.658739027E+00  9.068305664E+03
4.674504641E+00  9.092910156E+03
4.690270256E+00  9.123206055E+03
4.706035870E+00  9.142006836E+03
4.721801484E+00  9.178958984E+03
4.737567099E+00  9.199100586E+03
4.753332713E+00  9.213751953E+03
4.769098327E+00  9.239971680E+03
4.784863941E+00  9.261409180E+03
4.800629556E+00  9.276332031E+03
4.816395170E+00  9.299606445E+03
4.832160784E+00  9.328377930E+03
4.847926399E+00  9.368521484E+03
4.863692013E+00  9.389451172E+03
4.879457627E+00  9.406605469E+03
4.895223242E+00  9.434850586E+03
4.910988856E+00  9.451232422E+03
4.926754470E+00  9.475811523E+03
4.942520084E+00  9.469020508E+03
4.958285699E+00  9.516672852E+03
4.974051313E+00  9.525636719E+03
4.989816927E+00  9.560055664E+03
5.005582542E+00  9.582773438E+03
5.021348156E+00  9.607708984E+03
5.037113770E+00  9.604273438E+03
5.052879385E+00  9.610901367E+03
5.068644999E+00  9.617711914E+03
5.084410613E+00  9.620020508E+03
5.100176227E+00  9.663364258E+03
5.115941842E+00  9.684265625E+03
5.131707456E+00  9.719731445E+03
5.147473070E+00  9.742214844E+03
5.163238685E+00  9.760461914E+03
5.179004299E+00  9.754330078E+03
5.194769913E+00  9.756091797E+03
5.210535528E+00  9.786103516E+03
5.226301142E+00  9.806317383E+03
5.242066756E+00  9.830104492E+03
5.257832371E+00  9.840058594E+03
5.273597985E+00  9.861580078E+03
5.289363599E+00  9.874491211E+03
5.305129213E+00  9.908455078E+03
5.320894828E+00  9.908688477E+03
5.336660442E+00  9.929366211E+03
5.352426056E+00  9.958420898E+03
5.368191671E+00  9.992875977E+03
5.383957285E+00  1.001209766E+04
5.399722899E+00  1.001594727E+04
5.415488514E+00  1.002961523E+04
5.431254128E+00  1.002394531E+04
5.447019742E+00  1.003432031E+04
5.462785356E+00  1.005276270E+04
5.478550971E+00  1.007898438E+04
5.494316585E+00  1.009709668E+04
5.510082199E+00  1.011420605E+04
5.525847814E+00  1.012029785E+04
5.541613428E+00  1.014744531E+04
5.557379042E+00  1.014807324E+04
5.573144657E+00  1.017738672E+04
5.588910271E+00  1.019363672E+04
5.604675885E+00  1.022204688E+04
5.620441499E+00  1.023636816E+04
5.636207114E+00  1.022469141E+04
5.651972728E+00  1.023104297E+04
5.667738342E+00  1.024604883E+04
5.683503957E+00  1.027623340E+04
5.699269571E+00  1.028325977E+04
5.715035185E+00  1.030326172E+04
5.730800800E+00  1.031371191E+04
5.746566414E+00  1.033376367E+04
5.762332028E+00  1.034743750E+04
5.778097642E+00  1.036588770E+04
5.793863257E+00  1.039517871E+04
5.809628871E+00  1.039826758E+04
5.825394485E+00  1.042175879E+04
5.841160100E+00  1.045707324E+04
5.856925714E+00  1.049099805E+04
5.872691328E+00  1.048937695E+04
5.888456943E+00  1.050713770E+04
5.904222557E+00  1.052902539E+04
5.919988171E+00  1.057175586E+04
5.935753785E+00  1.060200098E+04
5.951519400E+00  1.070032715E+04
5.967285014E+00  1.077613379E+04
5.983050628E+00  1.087349707E+04
5.998816243E+00  1.096059473E+04
6.014581857E+00  1.103505176E+04
6.030347471E+00  1.106434570E+04
6.046113086E+00  1.106785840E+04
6.061878700E+00  1.109835352E+04
6.077644314E+00  1.111709668E+04
6.093409928E+00  1.116042871E+04
6.109175543E+00  1.111185156E+04
6.124941157E+00  1.104909180E+04
6.140706771E+00  1.095867969E+04
6.156472386E+00  1.091512891E+04
6.172238000E+00  1.087759668E+04
6.188003614E+00  1.086997656E+04
6.203769229E+00  1.086358105E+04
6.219534843E+00  1.087105664E+04
6.235300457E+00  1.089718945E+04
6.251066072E+00  1.090465332E+04
6.266831686E+00  1.092814355E+04
6.282597300E+00  1.094482227E+04
6.298362914E+00  1.097408789E+04
6.314128529E+00  1.097558887E+04
6.329894143E+00  1.100213184E+04
6.345659757E+00  1.098846973E+04
6.361425372E+00  1.101598828E+04
6.377190986E+00  1.100795996E+04
6.392956600E+00  1.103438379E+04
6.408722215E+00  1.106983594E+04
6.424487829E+00  1.109978027E+04
6.440253443E+00  1.111541016E+04
6.456019057E+00  1.112689844E+04
6.471784672E+00  1.115116113E+04
6.487550286E+00  1.118045703E+04
6.503315900E+00  1.119508984E+04
6.519081515E+00  1.119192676E+04
6.534847129E+00  1.118491113E+04
6.550612743E+00  1.121523340E+04
6.566378358E+00  1.121429395E+04
6.582143972E+00  1.124121387E+04
6.597909586E+00  1.125115137E+04
6.613675200E+00  1.127239648E+04
6.629440815E+00  1.127651953E+04
6.645206429E+00  1.127513867E+04
6.660972043E+00  1.129014453E+04
6.676737658E+00  1.129266797E+04
6.692503272E+00  1.132525000E+04
6.708268886E+00  1.135651465E+04
6.724034501E+00  1.137586523E+04
6.739800115E+00  1.139013184E+04
6.755565729E+00  1.140049219E+04
6.771331343E+00  1.143644922E+04
6.787096958E+00  1.147081836E+04
6.802862572E+00  1.149263574E+04
6.818628186E+00  1.148500781E+04
6.834393801E+00  1.151027637E+04
6.850159415E+00  1.152380469E+04
6.865925029E+00  1.156999512E+04
6.881690644E+00  1.160551855E+04
6.897456258E+00  1.160867090E+04
6.913221872E+00  1.162503906E+04
6.928987486E+00  1.164288477E+04
6.944753101E+00  1.168053223E+04
6.960518715E+00  1.167346289E+04
6.976284329E+00  1.169041992E+04
6.992049944E+00  1.169313672E+04
7.007815558E+00  1.174053613E+04
7.023581172E+00  1.177405273E+04
7.039346787E+00  1.181997266E+04
7.055112401E+00  1.183716406E+04
7.070878015E+00  1.186358789E+04
7.086643629E+00  1.188480957E+04
7.102409244E+00  1.191943555E+04
7.118174858E+00  1.195622656E+04
7.133940472E+00  1.199688379E+04
7.149706087E+00  1.203045898E+04
7.165471701E+00  1.203735156E+04
7.181237315E+00  1.203781836E+04
7.197002930E+00  1.205480176E+04
7.212768544E+00  1.207585156E+04
7.228534158E+00  1.209428027E+04
7.244299773E+00  1.208926660E+04
7.260065387E+00  1.210373633E+04
7.275831001E+00  1.210486816E+04
7.291596615E+00  1.213251562E+04
7.307362230E+00  1.211990918E+04
7.323127844E+00  1.213753027E+04
7.338893458E+00  1.214002051E+04
7.354659073E+00  1.217051562E+04
7.370424687E+00  1.219003418E+04
7.386190301E+00  1.220837402E+04
7.401955916E+00  1.223956152E+04
7.417721530E+00  1.223098730E+04
7.433487144E+00  1.221361035E+04
7.449252758E+00  1.222926074E+04
7.465018373E+00  1.227275098E+04
7.480783987E+00  1.231381445E+04
7.496549601E+00  1.233946289E+04
7.512315216E+00  1.236753125E+04
7.528080830E+00  1.238625488E+04
7.543846444E+00  1.242284766E+04
7.559612059E+00  1.247857715E+04
7.575377673E+00  1.252438086E+04
7.591143287E+00  1.257818555E+04
7.606908901E+00  1.261659473E+04
7.622674516E+00  1.266364062E+04
7.638440130E+00  1.271994141E+04
7.654205744E+00  1.275992578E+04
7.669971359E+00  1.280316797E+04
7.685736973E+00  1.281821191E+04
7.701502587E+00  1.283153613E+04
7.717268202E+00  1.281573340E+04
7.733033816E+00  1.281950879E+04
7.748799430E+00  1.281201758E+04
7.764565044E+00  1.284275000E+04
7.780330659E+00  1.284078320E+04
7.796096273E+00  1.286370215E+04
7.811861887E+00  1.286834863E+04
7.827627502E+00  1.290411523E+04
7.843393116E+00  1.293846387E+04
7.859158730E+00  1.295131348E+04
7.874924345E+00  1.297552637E+04
7.890689959E+00  1.298836230E+04
7.906455573E+00  1.300663965E+04
7.922221187E+00  1.304328711E+04
7.937986802E+00  1.306554004E+04
7.953752416E+00  1.309043945E+04
7.969518030E+00  1.314700684E+04
7.985283645E+00  1.321895996E+04
8.001049259E+00  1.328833301E+04
8.016814873E+00  1.334111914E+04
8.032580488E+00  1.339634961E+04
8.048346102E+00  1.344027539E+04
8.064111716E+00  1.348968555E+04
8.079877330E+00  1.354675195E+04
8.095642945E+00  1.359935059E+04
8.111408559E+00  1.365143262E+04
8.127174173E+00  1.372135742E+04
8.142939788E+00  1.380759277E+04
8.158705402E+00  1.387895312E+04
8.174471016E+00  1.396873047E+04
8.190236631E+00  1.405121582E+04
8.206002245E+00  1.413304688E+04
8.221767859E+00  1.413161816E+04
8.237533474E+00  1.413715820E+04
8.253299088E+00  1.409941504E+04
8.269064702E+00  1.405142969E+04
8.284830316E+00  1.393711621E+04
8.300595931E+00  1.376883789E+04
8.316361545E+00  1.350142383E+04
8.332127159E+00  1.343210352E+04
8.347892774E+00  1.354627246E+04
8.363658388E+00  1.358140430E+04
8.379424002E+00  1.357613965E+04
8.395189617E+00  1.354060156E+04
8.410955231E+00  1.352648828E+04
8.426720845E+00  1.351483301E+04
8.442486459E+00  1.354172070E+04
8.458252074E+00  1.354252930E+04
8.474017688E+00  1.356496387E+04
8.489783302E+00  1.355591309E+04
8.505548917E+00  1.357754395E+04
8.521314531E+00  1.360571680E+04
8.537080145E+00  1.362674023E+04
8.552845760E+00  1.366772168E+04
8.568611374E+00  1.373492676E+04
8.584376988E+00  1.381358008E+04
8.600142602E+00  1.389620215E+04
8.615908217E+00  1.399250781E+04
8.631673831E+00  1.405453027E+04
8.647439445E+00  1.399944434E+04
8.663205060E+00  1.379504590E+04
8.678970674E+00  1.377295410E+04
8.694736288E+00  1.386280371E+04
8.710501903E+00  1.389955762E+04
8.726267517E+00  1.389487793E+04
8.742033131E+00  1.390405176E+04
8.757798745E+00  1.389759082E+04
8.773564360E+00  1.389715723E+04
8.789329974E+00  1.391762598E+04
8.805095588E+00  1.397869141E+04
8.820861203E+00  1.401462207E+04
8.836626817E+00  1.403639551E+04
8.852392431E+00  1.405351953E+04
8.868158046E+00  1.408258594E+04
8.883923660E+00  1.410562598E+04
8.899689274E+00  1.413658203E+04
8.915454888E+00  1.419198047E+04
8.931220503E+00  1.421745605E+04
8.946986117E+00  1.423075000E+04
8.962751731E+00  1.424047168E+04
8.978517346E+00  1.423564941E+04
8.994282960E+00  1.422173633E+04
9.010048574E+00  1.420633691E+04
9.025814189E+00  1.421756250E+04
9.041579803E+00  1.420232715E+04
9.057345417E+00  1.420630566E+04
9.073111031E+00  1.418843555E+04
9.088876646E+00  1.421172168E+04
9.104642260E+00  1.420968164E+04
9.120407874E+00  1.425025098E+04
9.136173489E+00  1.425550293E+04
9.151939103E+00  1.426350000E+04
9.167704717E+00  1.424645410E+04
9.183470332E+00  1.425973535E+04
9.199235946E+00  1.427554297E+04
9.215001560E+00  1.431159961E+04
9.230767175E+00  1.433636719E+04
9.246532789E+00  1.436958887E+04
9.262298403E+00  1.438703516E+04
9.278064017E+00  1.439285547E+04
9.293829632E+00  1.440813965E+04
9.309595246E+00  1.441991699E+04
9.325360860E+00  1.443641406E+04
9.341126475E+00  1.442700879E+04
9.356892089E+00  1.444199316E+04
9.372657703E+00  1.441849316E+04
9.388423318E+00  1.441954102E+04
9.404188932E+00  1.441373633E+04
9.419954546E+00  1.442393262E+04
9.435720160E+00  1.444097559E+04
9.451485775E+00  1.448357715E+04
9.467251389E+00  1.451846680E+04
9.483017003E+00  1.454015234E+04
9.498782618E+00  1.454800391E+04
9.514548232E+00  1.455533203E+04
9.530313846E+00  1.458450000E+04
9.546079461E+00  1.461121094E+04
9.561845075E+00  1.464156348E+04
9.577610689E+00  1.466542480E+04
9.593376303E+00  1.468899609E+04
9.609141918E+00  1.471682324E+04
9.624907532E+00  1.472805469E+04
9.640673146E+00  1.473091211E+04
9.656438761E+00  1.474207520E+04
9.672204375E+00  1.477956738E+04
9.687969989E+00  1.481655957E+04
9.703735604E+00  1.486173047E+04
9.719501218E+00  1.489602539E+04
9.735266832E+00  1.495960352E+04
9.751032446E+00  1.501807910E+04
9.766798061E+00  1.509652246E+04
9.782563675E+00  1.515366211E+04
9.798329289E+00  1.521978418E+04
9.814094904E+00  1.529819629E+04
9.829860518E+00  1.537975586E+04
9.845626132E+00  1.541814941E+04
9.861391747E+00  1.542611914E+04
9.877157361E+00  1.541015137E+04
9.892922975E+00  1.538232324E+04
9.908688589E+00  1.534038086E+04
9.924454204E+00  1.532393066E+04
9.940219818E+00  1.531090820E+04
9.955985432E+00  1.532767871E+04
9.971751047E+00  1.537986035E+04
9.987516661E+00  1.542939551E+04
1.000328228E+01  1.554431250E+04
1.001904789E+01  1.564890039E+04
1.003481350E+01  1.575777539E+04
1.005057912E+01  1.585106152E+04
1.006634473E+01  1.592695117E+04
1.008211035E+01  1.601959277E+04
1.009787596E+01  1.606949805E+04
1.011364158E+01  1.606921875E+04
1.012940719E+01  1.605270312E+04
1.014517280E+01  1.592705371E+04
1.016093842E+01  1.570278711E+04
1.017670403E+01  1.550574316E+04
1.019246965E+01  1.537013281E+04
1.020823526E+01  1.524206641E+04
1.022400088E+01  1.513120410E+04
1.023976649E+01  1.501753125E+04
1.025553210E+01  1.492096875E+04
1.027129772E+01  1.484412598E+04
1.028706333E+01  1.481560840E+04
1.030282895E+01  1.477559668E+04
1.031859456E+01  1.475947754E+04
1.033436018E+01  1.471845801E+04
1.035012579E+01  1.470790430E+04
1.036589140E+01  1.467700977E+04
1.038165702E+01  1.469527832E+04
1.039742263E+01  1.468992383E+04
1.041318825E+01  1.470379590E+04
1.042895386E+01  1.465902148E+04
1.044471948E+01  1.463473926E+04
1.046048509E+01  1.456523047E+04
1.047625070E+01  1.455243555E+04
1.049201632E+01  1.448788574E+04
1.050778193E+01  1.448293164E+04
1.052354755E+01  1.443431543E+04
1.053931316E+01  1.442718066E+04
1.055507878E+01  1.435848633E+04
1.057084439E+01  1.433407031E+04
1.058661000E+01  1.428970410E+04
1.060237562E+01  1.430218945E+04
1.061814123E+01  1.429634277E+04
1.063390685E+01  1.428071191E+04
1.064967246E+01  1.424933203E+04
1.066543808E+01  1.423267773E+04
1.068120369E+01  1.422186426E+04
1.069696930E+01  1.421245605E+04
1.071273492E+01  1.422085254E+04
1.072850053E+01  1.438836914E+04
1.074426615E+01  1.449087012E+04
1.076003176E+01  1.458750488E+04
1.077579738E+01  1.462772656E+04
1.079156299E+01  1.469433008E+04
1.080732860E+01  1.473903320E+04
1.082309422E+01  1.481822363E+04
1.083885983E+01  1.488559863E+04
1.085462545E+01  1.493886035E+04
1.087039106E+01  1.498018164E+04
1.088615668E+01  1.503694629E+04
1.090192229E+01  1.507728516E+04
1.091768790E+01  1.511409180E+04
1.093345352E+01  1.515699512E+04
1.094921913E+01  1.519303906E+04
1.096498475E+01  1.521651270E+04
1.098075036E+01  1.526022070E+04
1.099651598E+01  1.531605664E+04
1.101228159E+01  1.536209863E+04
1.102804720E+01  1.538779199E+04
1.104381282E+01  1.530570020E+04
1.105957843E+01  1.518075098E+04
1.107534405E+01  1.512888867E+04
1.109110966E+01  1.507364258E+04
1.110687528E+01  1.503433496E+04
1.112264089E+01  1.499558008E+04
1.113840650E+01  1.498921387E+04
1.115417212E+01  1.495727344E+04
1.116993773E+01  1.491756250E+04
1.118570335E+01  1.484201953E+04
1.120146896E+01  1.480921094E+04
1.121723458E+01  1.476220312E+04
1.123300019E+01  1.475228711E+04
1.124876581E+01  1.468359863E+04
1.126453142E+01  1.467271973E+04
1.128029703E+01  1.462463867E+04
1.129606265E+01  1.463936914E+04
1.131182826E+01  1.462160742E+04
1.132759388E+01  1.465264160E+04
1.134335949E+01  1.464774414E+04
1.135912511E+01  1.468002051E+04
1.137489072E+01  1.470792969E+04
1.139065633E+01  1.477191113E+04
1.140642195E+01  1.488557227E+04
1.142218756E+01  1.520705078E+04
1.143795318E+01  1.591602051E+04
1.145371879E+01  1.714520898E+04
1.146948441E+01  1.847415039E+04
1.148525002E+01  1.901474023E+04
1.150101563E+01  1.840694531E+04
1.151678125E+01  1.706130469E+04
1.153254686E+01  1.585787305E+04
1.154831248E+01  1.517671680E+04
1.156407809E+01  1.486080566E+04
1.157984371E+01  1.468229297E+04
1.159560932E+01  1.456560059E+04
1.161137493E+01  1.460137695E+04
1.162714055E+01  1.470451270E+04
1.164290616E+01  1.478129492E+04
1.165867178E+01  1.484822852E+04
1.167443739E+01  1.490822852E+04
1.169020301E+01  1.495268848E+04
1.170596862E+01  1.499793262E+04
1.172173423E+01  1.503456641E+04
1.173749985E+01  1.505359863E+04
1.175326546E+01  1.506578711E+04
1.176903108E+01  1.509201953E+04
1.178479669E+01  1.511722461E+04
1.180056231E+01  1.515244238E+04
1.181632792E+01  1.519256934E+04
1.183209353E+01  1.522442090E+04
1.184785915E+01  1.526343359E+04
1.186362476E+01  1.530261523E+04
1.187939038E+01  1.533946777E+04
1.189515599E+01  1.538123145E+04
1.191092161E+01  1.539367090E+04
1.192668722E+01  1.542787305E+04
1.194245283E+01  1.546021777E+04
1.195821845E+01  1.548760742E+04
1.197398406E+01  1.551184277E+04
1.198974968E+01  1.557905762E+04
1.200551529E+01  1.561304883E+04
1.202128091E+01  1.563797168E+04
1.203704652E+01  1.566804199E+04
1.205281213E+01  1.570959473E+04
1.206857775E+01  1.575375391E+04
1.208434336E+01  1.578206445E+04
1.210010898E+01  1.581128613E+04
1.211587459E+01  1.583844141E+04
1.213164021E+01  1.586484180E+04
1.214740582E+01  1.588021191E+04
1.216317143E+01  1.588649805E+04
1.217893705E+01  1.590156348E+04
1.219470266E+01  1.591494238E+04
1.221046828E+01  1.591007910E+04
1.222623389E+01  1.590201562E+04
1.224199951E+01  1.588990723E+04
1.225776512E+01  1.588254883E+04
1.227353073E+01  1.588406934E+04
1.228929635E+01  1.588398242E+04
1.230506196E+01  1.589429785E+04
1.232082758E+01  1.588849609E+04
1.233659319E+01  1.589268164E+04
1.235235881E+01  1.589191113E+04
1.236812442E+01  1.591144141E+04
1.238389003E+01  1.592174414E+04
1.239965565E+01  1.594956934E+04
1.241542126E+01  1.598353809E+04
1.243118688E+01  1.599642773E+04
1.244695249E+01  1.600929590E+04
1.246271811E+01  1.602873340E+04
1.247848372E+01  1.605872461E+04
1.249424933E+01  1.607375977E+04
1.251001495E+01  1.611393359E+04
1.252578056E+01  1.614109473E+04
1.254154618E+01  1.617194727E+04
1.255731179E+01  1.617228809E+04
1.257307741E+01  1.617952051E+04
1.258884302E+01  1.619847070E+04
1.260460864E+01  1.621644141E+04
1.262037425E+01  1.621981836E+04
1.263613986E+01  1.621207129E+04
1.265190548E+01  1.620878027E+04
1.266767109E+01  1.622056836E+04
1.268343671E+01  1.623968359E+04
1.269920232E+01  1.625107520E+04
1.271496794E+01  1.625661719E+04
1.273073355E+01  1.626496289E+04
1.274649916E+01  1.627959375E+04
1.276226478E+01  1.631310254E+04
1.277803039E+01  1.634305566E+04
1.279379601E+01  1.634694238E+04
1.280956162E+01  1.632607324E+04
1.282532724E+01  1.634296387E+04
1.284109285E+01  1.634918359E+04
1.285685846E+01  1.635424512E+04
1.287262408E+01  1.634137598E+04
1.288838969E+01  1.633919238E+04
1.290415531E+01  1.634800391E+04
1.291992092E+01  1.636372461E+04
1.293568654E+01  1.636349609E+04
1.295145215E+01  1.639057812E+04
1.296721776E+01  1.639314648E+04
1.298298338E+01  1.641077734E+04
1.299874899E+01  1.642000000E+04
1.301451461E+01  1.645130664E+04
1.303028022E+01  1.647138477E+04
1.304604584E+01  1.650756641E+04
1.306181145E+01  1.654629297E+04
1.307757706E+01  1.658555273E+04
1.309334268E+01  1.661481250E+04
1.310910829E+01  1.666081641E+04
1.312487391E+01  1.672470508E+04
1.314063952E+01  1.678725195E+04
1.315640514E+01  1.685148047E+04
1.317217075E+01  1.693660938E+04
1.318793636E+01  1.702667383E+04
1.320370198E+01  1.716460938E+04
1.321946759E+01  1.733995508E+04
1.323523321E+01  1.752221484E+04
1.325099882E+01  1.759750000E+04
1.326676444E+01  1.766116797E+04
1.328253005E+01  1.762357617E+04
1.329829566E+01  1.757968945E+04
1.331406128E+01  1.743536328E+04
1.332982689E+01  1.726701367E+04
1.334559251E+01  1.710412500E+04
1.336135812E+01  1.697220312E+04
1.337712374E+01  1.689401367E+04
1.339288935E+01  1.685370117E+04
1.340865496E+01  1.680813086E+04
1.342442058E+01  1.677259961E+04
1.344018619E+01  1.674763477E+04
1.345595181E+01  1.678150195E+04
1.347171742E+01  1.680693945E+04
1.348748304E+01  1.684371680E+04
1.350324865E+01  1.682663086E+04
1.351901426E+01  1.681974219E+04
1.353477988E+01  1.684248828E+04
1.355054549E+01  1.687572852E+04
1.356631111E+01  1.686527930E+04
1.358207672E+01  1.688537109E+04
1.359784234E+01  1.688545703E+04
1.361360795E+01  1.691107227E+04
1.362937356E+01  1.691770508E+04
1.364513918E+01  1.693216992E+04
1.366090479E+01  1.695404102E+04
1.367667041E+01  1.697683398E+04
1.369243602E+01  1.698868164E+04
1.370820164E+01  1.696204883E+04
1.372396725E+01  1.694028320E+04
1.373973286E+01  1.693603516E+04
1.375549848E+01  1.694166406E+04
1.377126409E+01  1.691137500E+04
1.378702971E+01  1.686276953E+04
1.380279532E+01  1.683170312E+04
1.381856094E+01  1.681993359E+04
1.383432655E+01  1.683354883E+04
1.385009216E+01  1.682124023E+04
1.386585778E+01  1.679954297E+04
1.388162339E+01  1.677807617E+04
1.389738901E+01  1.677830859E+04
1.391315462E+01  1.677171484E+04
1.392892024E+01  1.676250977E+04
1.394468585E+01  1.675037500E+04
1.396045146E+01  1.676108398E+04
1.397621708E+01  1.677257031E+04
1.399198269E+01  1.676177734E+04
1.400774831E+01  1.674530273E+04
1.402351392E+01  1.671475977E+04
1.403927954E+01  1.669692773E+04
1.405504515E+01  1.669145312E+04
1.407081077E+01  1.669710352E+04
1.408657638E+01  1.669859570E+04
1.410234199E+01  1.669902148E+04
1.411810761E+01  1.669836719E+04
1.413387322E+01  1.668624219E+04
1.414963884E+01  1.668460352E+04
1.416540445E+01  1.667885938E+04
1.418117007E+01  1.668845117E+04
1.419693568E+01  1.668822461E+04
1.421270129E+01  1.669904688E+04
1.422846691E+01  1.668578906E+04
1.424423252E+01  1.669830469E+04
1.425999814E+01  1.670304297E+04
1.427576375E+01  1.670708398E+04
1.429152937E+01  1.669113281E+04
1.430729498E+01  1.669160352E+04
1.432306059E+01  1.670246875E+04
1.433882621E+01  1.669675195E+04
1.435459182E+01  1.668871094E+04
1.437035744E+01  1.669126758E+04
1.438612305E+01  1.669841602E+04
1.440188867E+01  1.671450195E+04
1.441765428E+01  1.672523633E+04
1.443341989E+01  1.672727344E+04
1.444918551E+01  1.671269336E+04
1.446495112E+01  1.672256836E+04
1.448071674E+01  1.673712695E+04
1.449648235E+01  1.674839258E+04
1.451224797E+01  1.676553125E+04
1.452801358E+01  1.679565430E+04
1.454377919E+01  1.680875195E+04
1.455954481E+01  1.681170703E+04
1.457531042E+01  1.680185938E+04
1.459107604E+01  1.683935352E+04
1.460684165E+01  1.685046094E+04
1.462260727E+01  1.685967969E+04
1.463837288E+01  1.686025195E+04
1.465413849E+01  1.686358203E+04
1.466990411E+01  1.685709375E+04
1.468566972E+01  1.687289258E+04
1.470143534E+01  1.689335742E+04
1.471720095E+01  1.690860156E+04
1.473296657E+01  1.689050586E+04
1.474873218E+01  1.688425391E+04
1.476449779E+01  1.686502344E+04
1.478026341E+01  1.689324219E+04
1.479602902E+01  1.689537109E+04
1.481179464E+01  1.691593750E+04
1.482756025E+01  1.690052539E+04
1.484332587E+01  1.688974414E+04
1.485909148E+01  1.687190820E+04
1.487485709E+01  1.685321289E+04
1.489062271E+01  1.682503516E+04
1.490638832E+01  1.685556055E+04
1.492215394E+01  1.687828125E+04
1.493791955E+01  1.692356641E+04
1.495368517E+01  1.693808984E+04
1.496945078E+01  1.698122266E+04
1.498521639E+01  1.698546094E+04
1.500098201E+01  1.701324023E+04
1.501674762E+01  1.699759766E+04
1.503251324E+01  1.700318164E+04
1.504827885E+01  1.698420703E+04
1.506404447E+01  1.695511719E+04
1.507981008E+01  1.692001172E+04
1.509557569E+01  1.689889062E+04
1.511134131E+01  1.686482812E+04
1.512710692E+01  1.683816016E+04
1.514287254E+01  1.679081055E+04
1.515863815E+01  1.678177539E+04
1.517440377E+01  1.674081445E+04
1.519016938E+01  1.673393164E+04
1.520593499E+01  1.670450781E+04
1.522170061E+01  1.668065625E+04
1.523746622E+01  1.662216602E+04
1.525323184E+01  1.660163867E+04
1.526899745E+01  1.657023633E+04
1.528476307E+01  1.657789062E+04
1.530052868E+01  1.656432031E+04
1.531629429E+01  1.656302539E+04
1.533205991E+01  1.651643555E+04
1.534782552E+01  1.650166992E+04
1.536359114E+01  1.647288867E+04
1.537935675E+01  1.647133789E+04
1.539512237E+01  1.644484375E+04
1.541088798E+01  1.645108594E+04
1.542665360E+01  1.643291406E+04
1.544241921E+01  1.642312891E+04
1.545818482E+01  1.639081641E+04
1.547395044E+01  1.639348633E+04
1.548971605E+01  1.636019434E+04
1.550548167E+01  1.634760840E+04
1.552124728E+01  1.631817969E+04
1.553701290E+01  1.631810254E+04
1.555277851E+01  1.630623438E+04
1.556854412E+01  1.631507129E+04
1.558430974E+01  1.629620020E+04
1.560007535E+01  1.628291504E+04
1.561584097E+01  1.626553027E+04
1.563160658E+01  1.625611621E+04
1.564737220E+01  1.624759961E+04
1.566313781E+01  1.624122266E+04
1.567890342E+01  1.621335449E+04
1.569466904E+01  1.620734863E+04
1.571043465E+01  1.617241895E+04
1.572620027E+01  1.615556836E+04
1.574196588E+01  1.614741016E+04
1.575773150E+01  1.615661426E+04
1.577349711E+01  1.615372949E+04
1.578926272E+01  1.614152148E+04
1.580502834E+01  1.611483984E+04
1.582079395E+01  1.609092090E+04
1.583655957E+01  1.608797461E+04
1.585232518E+01  1.608205469E+04
1.586809080E+01  1.609610938E+04
1.588385641E+01  1.607909668E+04
1.589962202E+01  1.605171289E+04
1.591538764E+01  1.604777832E+04
1.593115325E+01  1.604237988E+04
1.594691887E+01  1.603214941E+04
1.596268448E+01  1.603198730E+04
1.597845010E+01  1.600242383E+04
1.599421571E+01  1.597046289E+04
1.600998132E+01  1.595567969E+04
1.602574694E+01  1.594682910E+04
1.604151255E+01  1.595679883E+04
1.605727817E+01  1.595022559E+04
1.607304378E+01  1.594245117E+04
1.608880940E+01  1.594064258E+04
1.610457501E+01  1.591971191E+04
1.612034062E+01  1.590142285E+04
1.613610624E+01  1.588374609E+04
1.615187185E+01  1.589238086E+04
1.616763747E+01  1.587298633E+04
1.618340308E+01  1.586899121E+04
1.619916870E+01  1.585959863E+04
1.621493431E+01  1.583845312E+04
1.623069992E+01  1.580592871E+04
1.624646554E+01  1.579363184E+04
1.626223115E+01  1.579256641E+04
1.627799677E+01  1.577115039E+04
1.629376238E+01  1.575836719E+04
1.630952800E+01  1.576883887E+04
1.632529361E+01  1.575862207E+04
1.634105922E+01  1.572716211E+04
1.635682484E+01  1.573355957E+04
1.637259045E+01  1.575731348E+04
1.638835607E+01  1.576249805E+04
1.640412168E+01  1.573813477E+04
1.641988730E+01  1.572363965E+04
1.643565291E+01  1.570886719E+04
1.645141852E+01  1.570059668E+04
1.646718414E+01  1.570544824E+04
1.648294975E+01  1.570591504E+04
1.649871537E+01  1.569498047E+04
1.651448098E+01  1.569603418E+04
1.653024660E+01  1.566588965E+04
1.654601221E+01  1.566166699E+04
1.656177782E+01  1.566814355E+04
1.657754344E+01  1.567138477E+04
1.659330905E+01  1.565461523E+04
1.660907467E+01  1.563677930E+04
1.662484028E+01  1.561990625E+04
1.664060590E+01  1.560432031E+04
1.665637151E+01  1.559348438E+04
1.667213712E+01  1.561488184E+04
1.668790274E+01  1.560987988E+04
1.670366835E+01  1.560438965E+04
1.671943397E+01  1.558194824E+04
1.673519958E+01  1.556943945E+04
1.675096520E+01  1.555092676E+04
1.676673081E+01  1.553873242E+04
1.678249642E+01  1.550875391E+04
1.679826204E+01  1.552181250E+04
1.681402765E+01  1.552621777E+04
1.682979327E+01  1.550879785E+04
1.684555888E+01  1.548942090E+04
1.686132450E+01  1.550142188E+04
1.687709011E+01  1.549299512E+04
1.689285573E+01  1.547537598E+04
1.690862134E+01  1.547272559E+04
1.692438695E+01  1.548231055E+04
1.694015257E+01  1.547987305E+04
1.695591818E+01  1.548391699E+04
1.697168380E+01  1.549357031E+04
1.698744941E+01  1.548692578E+04
1.700321503E+01  1.546841602E+04
1.701898064E+01  1.546229395E+04
1.703474625E+01  1.543467871E+04
1.705051187E+01  1.539501172E+04
1.706627748E+01  1.536967969E+04
1.708204310E+01  1.541568262E+04
1.709780871E+01  1.542601172E+04
1.711357433E+01  1.543285352E+04
1.712933994E+01  1.543050586E+04
1.714510555E+01  1.542804590E+04
1.716087117E+01  1.544073047E+04
1.717663678E+01  1.543681836E+04
1.719240240E+01  1.543832129E+04
1.720816801E+01  1.541985449E+04
1.722393363E+01  1.539763184E+04
1.723969924E+01  1.540485742E+04
1.725546485E+01  1.541526855E+04
1.727123047E+01  1.540813184E+04
1.728699608E+01  1.539286133E+04
1.730276170E+01  1.536801465E+04
1.731852731E+01  1.535753320E+04
1.733429293E+01  1.536088281E+04
1.735005854E+01  1.532529590E+04
1.736582415E+01  1.530870801E+04
1.738158977E+01  1.527955762E+04
1.739735538E+01  1.525548633E+04
1.741312100E+01  1.525340039E+04
1.742888661E+01  1.524099805E+04
1.744465223E+01  1.522504004E+04
1.746041784E+01  1.520207617E+04
1.747618345E+01  1.520262988E+04
1.749194907E+01  1.519699707E+04
1.750771468E+01  1.517763672E+04
1.752348030E+01  1.515492871E+04
1.753924591E+01  1.514403418E+04
1.755501153E+01  1.514198730E+04
1.757077714E+01  1.511909668E+04
1.758654275E+01  1.509814941E+04
1.760230837E+01  1.507195215E+04
1.761807398E+01  1.506333301E+04
1.763383960E+01  1.505284961E+04
1.764960521E+01  1.503905078E+04
1.766537083E+01  1.502863672E+04
1.768113644E+01  1.501113477E+04
1.769690205E+01  1.498522559E+04
1.771266767E+01  1.496115820E+04
1.772843328E+01  1.494225293E+04
1.774419890E+01  1.493295410E+04
1.775996451E+01  1.493449023E+04
1.777573013E+01  1.492425098E+04
1.779149574E+01  1.490578223E+04
1.780726135E+01  1.489808594E+04
1.782302697E+01  1.486545410E+04
1.783879258E+01  1.483637207E+04
1.785455820E+01  1.482442480E+04
1.787032381E+01  1.480935156E+04
1.788608943E+01  1.480478320E+04
1.790185504E+01  1.478787793E+04
1.791762065E+01  1.481849707E+04
1.793338627E+01  1.480725098E+04
1.794915188E+01  1.478152441E+04
1.796491750E+01  1.474314941E+04
1.798068311E+01  1.470943945E+04
1.799644873E+01  1.469127344E+04
1.801221434E+01  1.469180176E+04
1.802797995E+01  1.468634082E+04
1.804374557E+01  1.468816113E+04
1.805951118E+01  1.466620117E+04
1.807527680E+01  1.462972266E+04
1.809104241E+01  1.460403711E+04
1.810680803E+01  1.459946680E+04
1.812257364E+01  1.460380078E+04
1.813833925E+01  1.457177344E+04
1.815410487E+01  1.455422852E+04
1.816987048E+01  1.454665723E+04
1.818563610E+01  1.453356152E+04
1.820140171E+01  1.452032422E+04
1.821716733E+01  1.449517969E+04
1.823293294E+01  1.446591211E+04
1.824869856E+01  1.445261230E+04
1.826446417E+01  1.443753711E+04
1.828022978E+01  1.444836816E+04
1.829599540E+01  1.444779883E+04
1.831176101E+01  1.442758008E+04
1.832752663E+01  1.440276855E+04
1.834329224E+01  1.437270020E+04
1.835905786E+01  1.434867969E+04
1.837482347E+01  1.434468457E+04
1.839058908E+01  1.433895703E+04
1.840635470E+01  1.433897266E+04
1.842212031E+01  1.430092188E+04
1.843788593E+01  1.429471387E+04
1.845365154E+01  1.429303809E+04
1.846941716E+01  1.428643066E+04
1.848518277E+01  1.428013477E+04
1.850094838E+01  1.426567285E+04
1.851671400E+01  1.424869727E+04
1.853247961E+01  1.422155762E+04
1.854824523E+01  1.417522559E+04
1.856401084E+01  1.415946582E+04
1.857977646E+01  1.413693848E+04
1.859554207E+01  1.411786133E+04
1.861130768E+01  1.411158691E+04
1.862707330E+01  1.408020410E+04
1.864283891E+01  1.407127344E+04
1.865860453E+01  1.407038184E+04
1.867437014E+01  1.406022461E+04
1.869013576E+01  1.404464941E+04
1.870590137E+01  1.402796875E+04
1.872166698E+01  1.401045996E+04
1.873743260E+01  1.400277734E+04
1.875319821E+01  1.398943262E+04
1.876896383E+01  1.397051465E+04
1.878472944E+01  1.394708496E+04
1.880049506E+01  1.389606250E+04
1.881626067E+01  1.390152539E+04
1.883202628E+01  1.390389355E+04
1.884779190E+01  1.389040723E+04
1.886355751E+01  1.389477637E+04
1.887932313E+01  1.388328027E+04
1.889508874E+01  1.387693262E+04
1.891085436E+01  1.384691895E+04
1.892661997E+01  1.383140527E+04
1.894238558E+01  1.380877344E+04
1.895815120E+01  1.380423242E+04
1.897391681E+01  1.377795410E+04
1.898968243E+01  1.376634082E+04
1.900544804E+01  1.375204980E+04
1.902121366E+01  1.374683594E+04
1.903697927E+01  1.375743066E+04
1.905274488E+01  1.372968652E+04
1.906851050E+01  1.373222266E+04
1.908427611E+01  1.372227734E+04
1.910004173E+01  1.373920020E+04
1.911580734E+01  1.372912402E+04
1.913157296E+01  1.371834180E+04
1.914733857E+01  1.373359766E+04
1.916310418E+01  1.371703320E+04
1.917886980E+01  1.372193750E+04
1.919463541E+01  1.372171191E+04
1.921040103E+01  1.372571875E+04
1.922616664E+01  1.373140137E+04
1.924193226E+01  1.372037695E+04
1.925769787E+01  1.374807715E+04
1.927346348E+01  1.373701172E+04
1.928922910E+01  1.373614844E+04
1.930499471E+01  1.372660449E+04
1.932076033E+01  1.372357031E+04
1.933652594E+01  1.372399805E+04
1.935229156E+01  1.371840527E+04
1.936805717E+01  1.371366113E+04
1.938382278E+01  1.370094824E+04
1.939958840E+01  1.370805176E+04
1.941535401E+01  1.369496094E+04
1.943111963E+01  1.370142773E+04
1.944688524E+01  1.370646680E+04
1.946265086E+01  1.374361816E+04
1.947841647E+01  1.377810645E+04
1.949418208E+01  1.376547656E+04
1.950994770E+01  1.376571289E+04
1.952571331E+01  1.377637793E+04
1.954147893E+01  1.380010645E+04
1.955724454E+01  1.381259082E+04
1.957301016E+01  1.378909082E+04
1.958877577E+01  1.378360547E+04
1.960454138E+01  1.378203418E+04
1.962030700E+01  1.379092578E+04
1.963607261E+01  1.379567969E+04
1.965183823E+01  1.377582227E+04
1.966760384E+01  1.377551465E+04
1.968336946E+01  1.378877148E+04
1.969913507E+01  1.378212793E+04
1.971490069E+01  1.378140234E+04
1.973066630E+01  1.379090039E+04
1.974643191E+01  1.381443848E+04
1.976219753E+01  1.382552051E+04
1.977796314E+01  1.386255957E+04
1.979372876E+01  1.387278320E+04
1.980949437E+01  1.386685938E+04
1.982525999E+01  1.386922559E+04
1.984102560E+01  1.388876074E+04
1.985679121E+01  1.389970117E+04
1.987255683E+01  1.388774805E+04
1.988832244E+01  1.389292578E+04
1.990408806E+01  1.389663770E+04
1.991985367E+01  1.391076465E+04
1.993561929E+01  1.390728418E+04
1.995138490E+01  1.389662793E+04
1.996715051E+01  1.387921973E+04
1.998291613E+01  1.388444238E+04
1.999868174E+01  1.386933398E+04
2.001444736E+01  1.386529785E+04
2.003021297E+01  1.384379688E+04
2.004597859E+01  1.384462402E+04
2.006174420E+01  1.382651172E+04
2.007750981E+01  1.383300488E+04
2.009327543E+01  1.380363965E+04
2.010904104E+01  1.378188184E+04
2.012480666E+01  1.375819629E+04
2.014057227E+01  1.375848730E+04
2.015633789E+01  1.375059863E+04
2.017210350E+01  1.374541602E+04
2.018786911E+01  1.372021875E+04
2.020363473E+01  1.369277051E+04
2.021940034E+01  1.367687988E+04
2.023516596E+01  1.367972754E+04
2.025093157E+01  1.367934863E+04
2.026669719E+01  1.367164551E+04
2.028246280E+01  1.364440527E+04
2.029822841E+01  1.361732129E+04
2.031399403E+01  1.358458984E+04
2.032975964E+01  1.354968262E+04
2.034552526E+01  1.353678027E+04
2.036129087E+01  1.354583105E+04
2.037705649E+01  1.355037012E+04
2.039282210E+01  1.355281250E+04
2.040858771E+01  1.354411035E+04
2.042435333E+01  1.352888672E+04
2.044011894E+01  1.351800781E+04
2.045588456E+01  1.351294727E+04
2.047165017E+01  1.349537500E+04
2.048741579E+01  1.348898633E+04
2.050318140E+01  1.349230176E+04
2.051894701E+01  1.349899707E+04
2.053471263E+01  1.349694531E+04
2.055047824E+01  1.347819922E+04
2.056624386E+01  1.345280273E+04
2.058200947E+01  1.344175488E+04
2.059777509E+01  1.343466992E+04
2.061354070E+01  1.342246387E+04
2.062930631E+01  1.340315820E+04
2.064507193E+01  1.338482715E+04
2.066083754E+01  1.335578125E+04
2.067660316E+01  1.334385449E+04
2.069236877E+01  1.334346289E+04
2.070813439E+01  1.334571777E+04
2.072390000E+01  1.333838184E+04
2.073966561E+01  1.333834863E+04
2.075543123E+01  1.334550000E+04
2.077119684E+01  1.333194629E+04
2.078696246E+01  1.332234473E+04
2.080272807E+01  1.328914258E+04
2.081849369E+01  1.325751270E+04
2.083425930E+01  1.324268555E+04
2.085002491E+01  1.324328516E+04
2.086579053E+01  1.325241504E+04
2.088155614E+01  1.324628516E+04
2.089732176E+01  1.321919824E+04
2.091308737E+01  1.320491699E+04
2.092885299E+01  1.321366602E+04
2.094461860E+01  1.321298047E+04
2.096038421E+01  1.318590723E+04
2.097614983E+01  1.316884180E+04
2.099191544E+01  1.317696973E+04
2.100768106E+01  1.315709766E+04
2.102344667E+01  1.314505078E+04
2.103921229E+01  1.313629590E+04
2.105497790E+01  1.313747363E+04
2.107074351E+01  1.311437695E+04
2.108650913E+01  1.311327734E+04
2.110227474E+01  1.308897656E+04
2.111804036E+01  1.309675586E+04
2.113380597E+01  1.309238281E+04
2.114957159E+01  1.308053320E+04
2.116533720E+01  1.305083594E+04
2.118110282E+01  1.304134082E+04
2.119686843E+01  1.302393652E+04
2.121263404E+01  1.302408008E+04
2.122839966E+01  1.304483984E+04
2.124416527E+01  1.303806055E+04
2.125993089E+01  1.301552344E+04
2.127569650E+01  1.299133496E+04
2.129146212E+01  1.297994531E+04
2.130722773E+01  1.297316992E+04
2.132299334E+01  1.296188184E+04
2.133875896E+01  1.296277246E+04
2.135452457E+01  1.295519824E+04
2.137029019E+01  1.295813477E+04
2.138605580E+01  1.295920508E+04
2.140182142E+01  1.293117969E+04
2.141758703E+01  1.289949121E+04
2.143335264E+01  1.285905078E+04
2.144911826E+01  1.286947363E+04
2.146488387E+01  1.288125977E+04
2.148064949E+01  1.284447461E+04
2.149641510E+01  1.278899805E+04
2.151218072E+01  1.274333789E+04
2.152794633E+01  1.276834180E+04
2.154371194E+01  1.281577344E+04
2.155947756E+01  1.281887305E+04
2.157524317E+01  1.283633496E+04
2.159100879E+01  1.282972363E+04
2.160677440E+01  1.282123730E+04
2.162254002E+01  1.278489258E+04
2.163830563E+01  1.278214453E+04
2.165407124E+01  1.278855078E+04
2.166983686E+01  1.278847168E+04
2.168560247E+01  1.278941992E+04
2.170136809E+01  1.275745605E+04
2.171713370E+01  1.274147461E+04
2.173289932E+01  1.274718359E+04
2.174866493E+01  1.275472266E+04
2.176443054E+01  1.273216406E+04
2.178019616E+01  1.270550781E+04
2.179596177E+01  1.268198633E+04
2.181172739E+01  1.266828711E+04
2.182749300E+01  1.263890723E+04
2.184325862E+01  1.264472656E+04
2.185902423E+01  1.266004297E+04
2.187478984E+01  1.268855176E+04
2.189055546E+01  1.266828223E+04
2.190632107E+01  1.265801367E+04
2.192208669E+01  1.264495508E+04
2.193785230E+01  1.261571777E+04
2.195361792E+01  1.259614551E+04
2.196938353E+01  1.257989941E+04
2.198514914E+01  1.257418750E+04
2.200091476E+01  1.254490234E+04
2.201668037E+01  1.254947070E+04
2.203244599E+01  1.255587109E+04
2.204821160E+01  1.254647070E+04
2.206397722E+01  1.253445703E+04
2.207974283E+01  1.251875293E+04
2.209550844E+01  1.252067578E+04
2.211127406E+01  1.251851562E+04
2.212703967E+01  1.250921094E+04
2.214280529E+01  1.248150195E+04
2.215857090E+01  1.247003809E+04
2.217433652E+01  1.250796484E+04
2.219010213E+01  1.253577344E+04
2.220586774E+01  1.246755664E+04
2.222163336E+01  1.239924512E+04
2.223739897E+01  1.236608594E+04
2.225316459E+01  1.236087207E+04
2.226893020E+01  1.236246875E+04
2.228469582E+01  1.235199121E+04
2.230046143E+01  1.236620312E+04
2.231622704E+01  1.236776172E+04
2.233199266E+01  1.238679492E+04
2.234775827E+01  1.238452734E+04
2.236352389E+01  1.236936035E+04
2.237928950E+01  1.233076953E+04
2.239505512E+01  1.234556934E+04
2.241082073E+01  1.233391992E+04
2.242658634E+01  1.234346094E+04
2.244235196E+01  1.234023730E+04
2.245811757E+01  1.231821094E+04
2.247388319E+01  1.226150488E+04
2.248964880E+01  1.223134180E+04
2.250541442E+01  1.222021094E+04
2.252118003E+01  1.221852344E+04
2.253694565E+01  1.221664258E+04
2.255271126E+01  1.219841406E+04
2.256847687E+01  1.218190234E+04
2.258424249E+01  1.219366309E+04
2.260000810E+01  1.220254297E+04
2.261577372E+01  1.217377637E+04
2.263153933E+01  1.214680762E+04
2.264730495E+01  1.217322266E+04
2.266307056E+01  1.218177930E+04
2.267883617E+01  1.212914844E+04
2.269460179E+01  1.210840039E+04
2.271036740E+01  1.214149316E+04
2.272613302E+01  1.215123438E+04
2.274189863E+01  1.214025879E+04
2.275766425E+01  1.208561914E+04
2.277342986E+01  1.208186426E+04
2.278919547E+01  1.208991016E+04
2.280496109E+01  1.211862695E+04
2.282072670E+01  1.211070410E+04
2.283649232E+01  1.210621094E+04
2.285225793E+01  1.208206055E+04
2.286802355E+01  1.205773047E+04
2.288378916E+01  1.200782812E+04
2.289955477E+01  1.198934570E+04
2.291532039E+01  1.196844238E+04
2.293108600E+01  1.196187012E+04
2.294685162E+01  1.195065527E+04
2.296261723E+01  1.196217773E+04
2.297838285E+01  1.198970898E+04
2.299414846E+01  1.202577148E+04
2.300991407E+01  1.203310645E+04
2.302567969E+01  1.200182617E+04
2.304144530E+01  1.193370312E+04
2.305721092E+01  1.189945508E+04
2.307297653E+01  1.190032324E+04
2.308874215E+01  1.189697754E+04
2.310450776E+01  1.186717773E+04
2.312027337E+01  1.189553711E+04
2.313603899E+01  1.186849609E+04
2.315180460E+01  1.187437012E+04
2.316757022E+01  1.186875488E+04
2.318333583E+01  1.179381152E+04
2.319910145E+01  1.178554004E+04
2.321486706E+01  1.180351465E+04
2.323063267E+01  1.182222266E+04
2.324639829E+01  1.174527539E+04
2.326216390E+01  1.168166699E+04
2.327792952E+01  1.169115137E+04
2.329369513E+01  1.184080176E+04
2.330946075E+01  1.190953516E+04
2.332522636E+01  1.187843164E+04
2.334099197E+01  1.180254785E+04
2.335675759E+01  1.176083691E+04
2.337252320E+01  1.176258887E+04
2.338828882E+01  1.174972559E+04
2.340405443E+01  1.179174805E+04
2.341982005E+01  1.175472363E+04
2.343558566E+01  1.178075586E+04
2.345135127E+01  1.169271680E+04
2.346711689E+01  1.166790332E+04
2.348288250E+01  1.170826074E+04
2.349864812E+01  1.183873340E+04
2.351441373E+01  1.195916211E+04
2.353017935E+01  1.186013574E+04
2.354594496E+01  1.172646582E+04
2.356171057E+01  1.158350977E+04
2.357747619E+01  1.168844824E+04
2.359324180E+01  1.193525586E+04
2.360900742E+01  1.198685156E+04
2.362477303E+01  1.204302637E+04
2.364053865E+01  1.186821387E+04
2.365630426E+01  1.182547461E+04
2.367206987E+01  1.168679395E+04
2.368783549E+01  1.152259570E+04
2.370360110E+01  1.104183008E+04
2.371936672E+01  1.077064062E+04
2.373513233E+01  1.059649805E+04
2.375089795E+01  1.035026074E+04
2.376666356E+01  9.915593750E+03
