# == pyFAI calibration ==
# SplineFile: None
# PixelSize: 1.720e-04, 1.720e-04 m
# PONI: 8.722e-02, 8.342e-02 m
# Distance Sample to Detector: 0.284634930882 m
# Rotations: -0.000251 0.000603 -0.000000 rad
# 
# == Fit2d calibration ==
# Distance Sample-beamCenter: 284.635 mm
# Center: x=485.389, y=508.119 pix
# Tilt: 0.037 deg  TiltPlanRot: 67.409 deg
# 
# Wavelength: 3.344e-11
# Polarization factor: 0.99
# Normalization factor: None
#
# 2th_deg	 I
7.882808091E-03  1.355052032E+02
2.364842239E-02  1.518529358E+02
3.941403669E-02  1.486516724E+02
5.517965100E-02  1.334100952E+02
7.094526530E-02  1.134110336E+02
8.671087960E-02  1.066345139E+02
1.024764939E-01  9.581945038E+01
1.182421082E-01  9.298922729E+01
1.340077225E-01  8.535190582E+01
1.497733368E-01  8.838471222E+01
1.655389511E-01  8.176337433E+01
1.813045654E-01  8.362298584E+01
1.970701797E-01  7.917627716E+01
2.128357940E-01  7.962037659E+01
2.286014083E-01  7.693000031E+01
2.443670226E-01  7.730432892E+01
2.601326369E-01  7.685115051E+01
2.758982512E-01  7.804564667E+01
2.916638655E-01  7.902763367E+01
3.074294798E-01  9.081755066E+01
3.231950941E-01  9.744485474E+01
3.389607084E-01  1.009422913E+02
3.547263227E-01  1.003649216E+02
3.704919370E-01  1.035737610E+02
3.862575513E-01  1.056274948E+02
4.020231656E-01  1.064256287E+02
4.177887799E-01  1.077988739E+02
4.335543942E-01  1.102320251E+02
4.493200085E-01  1.138938293E+02
4.650856228E-01  1.146749954E+02
4.808512371E-01  1.153025589E+02
4.966168514E-01  1.145536423E+02
5.123824657E-01  1.163829117E+02
5.281480800E-01  1.155969391E+02
5.439136943E-01  1.172379608E+02
5.596793086E-01  1.161864166E+02
5.754449229E-01  1.178432236E+02
5.912105372E-01  1.171232681E+02
6.069761516E-01  1.190977173E+02
6.227417659E-01  1.195474243E+02
6.385073802E-01  1.199813538E+02
6.542729945E-01  1.203270035E+02
6.700386088E-01  1.206155472E+02
6.858042231E-01  1.212701035E+02
7.015698374E-01  1.210899582E+02
7.173354517E-01  1.220365829E+02
7.331010660E-01  1.232136383E+02
7.488666803E-01  1.228956680E+02
7.646322946E-01  1.235801468E+02
7.803979089E-01  1.230724182E+02
7.961635232E-01  1.242975159E+02
8.119291375E-01  1.234546356E+02
8.276947518E-01  1.239773331E+02
8.434603661E-01  1.235251923E+02
8.592259804E-01  1.254040756E+02
8.749915947E-01  1.260331955E+02
8.907572090E-01  1.271011810E+02
9.065228233E-01  1.261992798E+02
9.222884376E-01  1.269599609E+02
9.380540519E-01  1.262934875E+02
9.538196662E-01  1.280267334E+02
9.695852805E-01  1.270561981E+02
9.853508948E-01  1.277636108E+02
1.001116509E+00  1.284240265E+02
1.016882123E+00  1.288183441E+02
1.032647738E+00  1.292305603E+02
1.048413352E+00  1.293499908E+02
1.064178966E+00  1.298656616E+02
1.079944581E+00  1.304709778E+02
1.095710195E+00  1.310575409E+02
1.111475809E+00  1.309330597E+02
1.127241424E+00  1.316671448E+02
1.143007038E+00  1.325251465E+02
1.158772652E+00  1.324679260E+02
1.174538266E+00  1.334118347E+02
1.190303881E+00  1.341824341E+02
1.206069495E+00  1.351092682E+02
1.221835109E+00  1.350089417E+02
1.237600724E+00  1.355836639E+02
1.253366338E+00  1.358457336E+02
1.269131952E+00  1.368467560E+02
1.284897567E+00  1.388287506E+02
1.300663181E+00  1.431911469E+02
1.316428795E+00  1.516403046E+02
1.332194409E+00  1.681804199E+02
1.347960024E+00  2.072305908E+02
1.363725638E+00  2.840767212E+02
1.379491252E+00  3.897263184E+02
1.395256867E+00  5.326699219E+02
1.411022481E+00  6.807320557E+02
1.426788095E+00  8.164076538E+02
1.442553710E+00  9.554263306E+02
1.458319324E+00  1.067955566E+03
1.474084938E+00  1.201875488E+03
1.489850552E+00  1.308269409E+03
1.505616167E+00  1.440109375E+03
1.521381781E+00  1.582275024E+03
1.537147395E+00  1.699855835E+03
1.552913010E+00  1.825616089E+03
1.568678624E+00  1.930686523E+03
1.584444238E+00  2.060444336E+03
1.600209853E+00  2.186383057E+03
1.615975467E+00  2.337873047E+03
1.631741081E+00  2.480641846E+03
1.647506695E+00  2.615182861E+03
1.663272310E+00  2.745766357E+03
1.679037924E+00  2.896462891E+03
1.694803538E+00  3.058531494E+03
1.710569153E+00  3.239303711E+03
1.726334767E+00  3.414023682E+03
1.742100381E+00  3.606566895E+03
1.757865996E+00  3.774334961E+03
1.773631610E+00  3.961117432E+03
1.789397224E+00  4.169755859E+03
1.805162838E+00  4.362119141E+03
1.820928453E+00  4.528376953E+03
1.836694067E+00  4.680572754E+03
1.852459681E+00  4.812901367E+03
1.868225296E+00  4.944061523E+03
1.883990910E+00  5.059678711E+03
1.899756524E+00  5.193565430E+03
1.915522139E+00  5.302761719E+03
1.931287753E+00  5.405342285E+03
1.947053367E+00  5.467209473E+03
1.962818981E+00  5.575420410E+03
1.978584596E+00  5.691082520E+03
1.994350210E+00  5.808643555E+03
2.010115824E+00  5.879693359E+03
2.025881439E+00  5.980279785E+03
2.041647053E+00  6.089076172E+03
2.057412667E+00  6.164740234E+03
2.073178282E+00  6.260695801E+03
2.088943896E+00  6.334231934E+03
2.104709510E+00  6.438967773E+03
2.120475125E+00  6.498689453E+03
2.136240739E+00  6.582443848E+03
2.152006353E+00  6.653585449E+03
2.167771967E+00  6.758704590E+03
2.183537582E+00  6.831902344E+03
2.199303196E+00  6.912825195E+03
2.215068810E+00  6.967646484E+03
2.230834425E+00  7.014926270E+03
2.246600039E+00  7.088552734E+03
2.262365653E+00  7.156182129E+03
2.278131268E+00  7.272140137E+03
2.293896882E+00  7.328025391E+03
2.309662496E+00  7.420375977E+03
2.325428110E+00  7.458653320E+03
2.341193725E+00  7.535463867E+03
2.356959339E+00  7.562925293E+03
2.372724953E+00  7.630921875E+03
2.388490568E+00  7.712790527E+03
2.404256182E+00  7.778547363E+03
2.420021796E+00  7.847426758E+03
2.435787411E+00  7.862551270E+03
2.451553025E+00  7.937363770E+03
2.467318639E+00  7.974748047E+03
2.483084253E+00  8.049091797E+03
2.498849868E+00  8.088002441E+03
2.514615482E+00  8.155380371E+03
2.530381096E+00  8.186402832E+03
2.546146711E+00  8.225811523E+03
2.561912325E+00  8.250099609E+03
2.577677939E+00  8.299770508E+03
2.593443554E+00  8.362419922E+03
2.609209168E+00  8.422146484E+03
2.624974782E+00  8.494321289E+03
2.640740396E+00  8.524685547E+03
2.656506011E+00  8.581399414E+03
2.672271625E+00  8.593309570E+03
2.688037239E+00  8.648815430E+03
2.703802854E+00  8.646840820E+03
2.719568468E+00  8.693982422E+03
2.735334082E+00  8.712124023E+03
2.751099697E+00  8.767634766E+03
2.766865311E+00  8.798102539E+03
2.782630925E+00  8.839867188E+03
2.798396539E+00  8.879974609E+03
2.814162154E+00  8.901564453E+03
2.829927768E+00  8.928638672E+03
2.845693382E+00  8.925665039E+03
2.861458997E+00  8.989678711E+03
2.877224611E+00  9.011236328E+03
2.892990225E+00  9.073586914E+03
2.908755840E+00  9.046095703E+03
2.924521454E+00  8.955336914E+03
2.940287068E+00  8.842705078E+03
2.956052682E+00  8.762190430E+03
2.971818297E+00  8.698306641E+03
2.987583911E+00  8.644518555E+03
3.003349525E+00  8.621480469E+03
3.019115140E+00  8.572731445E+03
3.034880754E+00  8.550271484E+03
3.050646368E+00  8.499509766E+03
3.066411983E+00  8.482397461E+03
3.082177597E+00  8.440702148E+03
3.097943211E+00  8.447131836E+03
3.113708825E+00  8.428274414E+03
3.129474440E+00  8.406353516E+03
3.145240054E+00  8.380862305E+03
3.161005668E+00  8.343187500E+03
3.176771283E+00  8.330079102E+03
3.192536897E+00  8.297179688E+03
3.208302511E+00  8.295580078E+03
3.224068126E+00  8.275984375E+03
3.239833740E+00  8.285949219E+03
3.255599354E+00  8.261942383E+03
3.271364969E+00  8.254761719E+03
3.287130583E+00  8.212816406E+03
3.302896197E+00  8.209826172E+03
3.318661811E+00  8.201509766E+03
3.334427426E+00  8.192373047E+03
3.350193040E+00  8.197551758E+03
3.365958654E+00  8.178490723E+03
3.381724269E+00  8.189958496E+03
3.397489883E+00  8.169240234E+03
3.413255497E+00  8.162313965E+03
3.429021112E+00  8.154779785E+03
3.444786726E+00  8.169650879E+03
3.460552340E+00  8.140954590E+03
3.476317954E+00  8.109217285E+03
3.492083569E+00  8.093693848E+03
3.507849183E+00  8.239777344E+03
3.523614797E+00  8.368062500E+03
3.539380412E+00  8.476364258E+03
3.555146026E+00  8.575488281E+03
3.570911640E+00  8.631404297E+03
3.586677255E+00  8.713250000E+03
3.602442869E+00  8.735181641E+03
3.618208483E+00  8.795236328E+03
3.633974097E+00  8.812503906E+03
3.649739712E+00  8.880413086E+03
3.665505326E+00  8.925203125E+03
3.681270940E+00  8.991321289E+03
3.697036555E+00  9.003340820E+03
3.712802169E+00  9.034904297E+03
3.728567783E+00  9.096512695E+03
3.744333398E+00  9.148446289E+03
3.760099012E+00  9.182278320E+03
3.775864626E+00  9.200706055E+03
3.791630240E+00  9.244758789E+03
3.807395855E+00  9.258372070E+03
3.823161469E+00  9.277396484E+03
3.838927083E+00  9.159897461E+03
3.854692698E+00  9.069112305E+03
3.870458312E+00  8.989078125E+03
3.886223926E+00  8.928546875E+03
3.901989541E+00  8.882187500E+03
3.917755155E+00  8.828166016E+03
3.933520769E+00  8.800328125E+03
3.949286383E+00  8.760937500E+03
3.965051998E+00  8.742503906E+03
3.980817612E+00  8.692319336E+03
3.996583226E+00  8.692067383E+03
4.012348841E+00  8.637124023E+03
4.028114455E+00  8.604039062E+03
4.043880069E+00  8.572273438E+03
4.059645684E+00  8.563349609E+03
4.075411298E+00  8.557909180E+03
4.091176912E+00  8.537780273E+03
4.106942526E+00  8.533821289E+03
4.122708141E+00  8.504844727E+03
4.138473755E+00  8.496768555E+03
4.154239369E+00  8.471060547E+03
4.170004984E+00  8.492745117E+03
4.185770598E+00  8.458770508E+03
4.201536212E+00  8.439595703E+03
4.217301827E+00  8.404523438E+03
4.233067441E+00  8.391683594E+03
4.248833055E+00  8.375741211E+03
4.264598670E+00  8.359972656E+03
4.280364284E+00  8.347390625E+03
4.296129898E+00  8.333534180E+03
4.311895512E+00  8.335216797E+03
4.327661127E+00  8.303739258E+03
4.343426741E+00  8.316319336E+03
4.359192355E+00  8.288202148E+03
4.374957970E+00  8.294314453E+03
4.390723584E+00  8.268669922E+03
4.406489198E+00  8.255875977E+03
4.422254813E+00  8.329816406E+03
4.438020427E+00  8.489879883E+03
4.453786041E+00  8.601649414E+03
4.469551655E+00  8.705464844E+03
4.485317270E+00  8.766472656E+03
4.501082884E+00  8.826511719E+03
4.516848498E+00  8.879743164E+03
4.532614113E+00  8.902935547E+03
4.548379727E+00  8.945578125E+03
4.564145341E+00  8.951204102E+03
4.579910956E+00  8.999936523E+03
4.595676570E+00  9.017129883E+03
4.611442184E+00  9.049887695E+03
4.627207798E+00  9.089093750E+03
4.642973413E+00  9.126339844E+03
4.658739027E+00  9.159516602E+03
4.674504641E+00  9.179420898E+03
4.690270256E+00  9.204933594E+03
4.706035870E+00  9.217134766E+03
4.721801484E+00  9.260517578E+03
4.737567099E+00  9.284469727E+03
4.753332713E+00  9.303085938E+03
4.769098327E+00  9.329348633E+03
4.784863941E+00  9.347470703E+03
4.800629556E+00  9.360867188E+03
4.816395170E+00  9.382333984E+03
4.832160784E+00  9.412972656E+03
4.847926399E+00  9.451311523E+03
4.863692013E+00  9.473657227E+03
4.879457627E+00  9.493536133E+03
4.895223242E+00  9.520834961E+03
4.910988856E+00  9.544774414E+03
4.926754470E+00  9.572404297E+03
4.942520084E+00  9.563887695E+03
4.958285699E+00  9.600322266E+03
4.974051313E+00  9.607887695E+03
4.989816927E+00  9.641800781E+03
5.005582542E+00  9.670745117E+03
5.021348156E+00  9.698872070E+03
5.037113770E+00  9.697320312E+03
5.052879385E+00  9.699443359E+03
5.068644999E+00  9.707049805E+03
5.084410613E+00  9.705223633E+03
5.100176227E+00  9.746263672E+03
5.115941842E+00  9.765064453E+03
5.131707456E+00  9.801205078E+03
5.147473070E+00  9.826842773E+03
5.163238685E+00  9.849408203E+03
5.179004299E+00  9.842853516E+03
5.194769913E+00  9.845657227E+03
5.210535528E+00  9.872868164E+03
5.226301142E+00  9.891570312E+03
5.242066756E+00  9.917391602E+03
5.257832371E+00  9.930977539E+03
5.273597985E+00  9.954693359E+03
5.289363599E+00  9.964641602E+03
5.305129213E+00  9.997639648E+03
5.320894828E+00  1.000069238E+04
5.336660442E+00  1.002603516E+04
5.352426056E+00  1.005665527E+04
5.368191671E+00  1.008832422E+04
5.383957285E+00  1.010888086E+04
5.399722899E+00  1.010746094E+04
5.415488514E+00  1.011627246E+04
5.431254128E+00  1.010630664E+04
5.447019742E+00  1.012276465E+04
5.462785356E+00  1.014547656E+04
5.478550971E+00  1.016974414E+04
5.494316585E+00  1.018583887E+04
5.510082199E+00  1.020359961E+04
5.525847814E+00  1.021442773E+04
5.541613428E+00  1.024168750E+04
5.557379042E+00  1.024409570E+04
5.573144657E+00  1.027280273E+04
5.588910271E+00  1.028581445E+04
5.604675885E+00  1.030954980E+04
5.620441499E+00  1.032561523E+04
5.636207114E+00  1.031993945E+04
5.651972728E+00  1.033035254E+04
5.667738342E+00  1.034356641E+04
5.683503957E+00  1.037062012E+04
5.699269571E+00  1.037470508E+04
5.715035185E+00  1.039567383E+04
5.730800800E+00  1.040923047E+04
5.746566414E+00  1.043163281E+04
5.762332028E+00  1.044404492E+04
5.778097642E+00  1.046140039E+04
5.793863257E+00  1.049094336E+04
5.809628871E+00  1.049350000E+04
5.825394485E+00  1.051420508E+04
5.841160100E+00  1.054507812E+04
5.856925714E+00  1.057562207E+04
5.872691328E+00  1.057454492E+04
5.888456943E+00  1.058681543E+04
5.904222557E+00  1.060296680E+04
5.919988171E+00  1.063316602E+04
5.935753785E+00  1.063958105E+04
5.951519400E+00  1.069570801E+04
5.967285014E+00  1.071344336E+04
5.983050628E+00  1.074907227E+04
5.998816243E+00  1.080078906E+04
6.014581857E+00  1.087858105E+04
6.030347471E+00  1.094835449E+04
6.046113086E+00  1.099706445E+04
6.061878700E+00  1.106320996E+04
6.077644314E+00  1.108021680E+04
6.093409928E+00  1.112278418E+04
6.109175543E+00  1.107734277E+04
6.124941157E+00  1.104528418E+04
6.140706771E+00  1.098128223E+04
6.156472386E+00  1.096723438E+04
6.172238000E+00  1.095135059E+04
6.188003614E+00  1.095392871E+04
6.203769229E+00  1.095229883E+04
6.219534843E+00  1.096395020E+04
6.235300457E+00  1.099492285E+04
6.251066072E+00  1.100245020E+04
6.266831686E+00  1.102400684E+04
6.282597300E+00  1.104208887E+04
6.298362914E+00  1.107606738E+04
6.314128529E+00  1.107909961E+04
6.329894143E+00  1.111220703E+04
6.345659757E+00  1.109643555E+04
6.361425372E+00  1.112315332E+04
6.377190986E+00  1.111600781E+04
6.392956600E+00  1.114570605E+04
6.408722215E+00  1.118362012E+04
6.424487829E+00  1.121559473E+04
6.440253443E+00  1.122979883E+04
6.456019057E+00  1.123513867E+04
6.471784672E+00  1.125660547E+04
6.487550286E+00  1.128374121E+04
6.503315900E+00  1.130137988E+04
6.519081515E+00  1.130025098E+04
6.534847129E+00  1.129295996E+04
6.550612743E+00  1.132238379E+04
6.566378358E+00  1.132068848E+04
6.582143972E+00  1.135424609E+04
6.597909586E+00  1.136663574E+04
6.613675200E+00  1.139050977E+04
6.629440815E+00  1.138915039E+04
6.645206429E+00  1.138682227E+04
6.660972043E+00  1.139909375E+04
6.676737658E+00  1.140106543E+04
6.692503272E+00  1.143257422E+04
6.708268886E+00  1.146495410E+04
6.724034501E+00  1.148150195E+04
6.739800115E+00  1.150031543E+04
6.755565729E+00  1.151337695E+04
6.771331343E+00  1.155400293E+04
6.787096958E+00  1.158918066E+04
6.802862572E+00  1.161440918E+04
6.818628186E+00  1.160960938E+04
6.834393801E+00  1.163398438E+04
6.850159415E+00  1.164998242E+04
6.865925029E+00  1.169813184E+04
6.881690644E+00  1.173386914E+04
6.897456258E+00  1.173730469E+04
6.913221872E+00  1.175721680E+04
6.928987486E+00  1.177681348E+04
6.944753101E+00  1.181598633E+04
6.960518715E+00  1.181304785E+04
6.976284329E+00  1.183406348E+04
6.992049944E+00  1.183833984E+04
7.007815558E+00  1.188719922E+04
7.023581172E+00  1.192350684E+04
7.039346787E+00  1.197191797E+04
7.055112401E+00  1.198823145E+04
7.070878015E+00  1.201000684E+04
7.086643629E+00  1.203104980E+04
7.102409244E+00  1.206252930E+04
7.118174858E+00  1.209838184E+04
7.133940472E+00  1.213402246E+04
7.149706087E+00  1.216741016E+04
7.165471701E+00  1.217214160E+04
7.181237315E+00  1.217297363E+04
7.197002930E+00  1.219222070E+04
7.212768544E+00  1.221409277E+04
7.228534158E+00  1.223785742E+04
7.244299773E+00  1.223575977E+04
7.260065387E+00  1.225439941E+04
7.275831001E+00  1.225516504E+04
7.291596615E+00  1.228795703E+04
7.307362230E+00  1.227888867E+04
7.323127844E+00  1.230146387E+04
7.338893458E+00  1.230747363E+04
7.354659073E+00  1.234116895E+04
7.370424687E+00  1.236391309E+04
7.386190301E+00  1.238333203E+04
7.401955916E+00  1.242129883E+04
7.417721530E+00  1.241475684E+04
7.433487144E+00  1.239790039E+04
7.449252758E+00  1.241818164E+04
7.465018373E+00  1.246914844E+04
7.480783987E+00  1.251614258E+04
7.496549601E+00  1.254843945E+04
7.512315216E+00  1.257835938E+04
7.528080830E+00  1.260606348E+04
7.543846444E+00  1.265106738E+04
7.559612059E+00  1.270728223E+04
7.575377673E+00  1.275252344E+04
7.591143287E+00  1.280887402E+04
7.606908901E+00  1.284774023E+04
7.622674516E+00  1.289063281E+04
7.638440130E+00  1.294380859E+04
7.654205744E+00  1.298357031E+04
7.669971359E+00  1.302761719E+04
7.685736973E+00  1.305254980E+04
7.701502587E+00  1.308291504E+04
7.717268202E+00  1.308920703E+04
7.733033816E+00  1.311874316E+04
7.748799430E+00  1.313312695E+04
7.764565044E+00  1.318703223E+04
7.780330659E+00  1.320432520E+04
7.796096273E+00  1.324344727E+04
7.811861887E+00  1.325950684E+04
7.827627502E+00  1.331322461E+04
7.843393116E+00  1.337076758E+04
7.859158730E+00  1.340509766E+04
7.874924345E+00  1.344862793E+04
7.890689959E+00  1.348160840E+04
7.906455573E+00  1.352259082E+04
7.922221187E+00  1.358130176E+04
7.937986802E+00  1.362630273E+04
7.953752416E+00  1.367111523E+04
7.969518030E+00  1.374519141E+04
7.985283645E+00  1.383900684E+04
8.001049259E+00  1.392845703E+04
8.016814873E+00  1.400219531E+04
8.032580488E+00  1.407938379E+04
8.048346102E+00  1.414620605E+04
8.064111716E+00  1.421731055E+04
8.079877330E+00  1.428506152E+04
8.095642945E+00  1.434057227E+04
8.111408559E+00  1.438702930E+04
8.127174173E+00  1.444162500E+04
8.142939788E+00  1.449775879E+04
8.158705402E+00  1.452261816E+04
8.174471016E+00  1.454393750E+04
8.190236631E+00  1.455133105E+04
8.206002245E+00  1.455479590E+04
8.221767859E+00  1.449737793E+04
8.237533474E+00  1.447102246E+04
8.253299088E+00  1.443163379E+04
8.269064702E+00  1.439078418E+04
8.284830316E+00  1.430050684E+04
8.300595931E+00  1.414653613E+04
8.316361545E+00  1.388371875E+04
8.332127159E+00  1.380663672E+04
8.347892774E+00  1.391296387E+04
8.363658388E+00  1.394817285E+04
8.379424002E+00  1.395745117E+04
8.395189617E+00  1.394296777E+04
8.410955231E+00  1.394651074E+04
8.426720845E+00  1.395189453E+04
8.442486459E+00  1.398807031E+04
8.458252074E+00  1.399540527E+04
8.474017688E+00  1.402085645E+04
8.489783302E+00  1.400788965E+04
8.505548917E+00  1.402257520E+04
8.521314531E+00  1.404634668E+04
8.537080145E+00  1.406085840E+04
8.552845760E+00  1.408761523E+04
8.568611374E+00  1.413123926E+04
8.584376988E+00  1.418069922E+04
8.600142602E+00  1.422092383E+04
8.615908217E+00  1.426271680E+04
8.631673831E+00  1.427752441E+04
8.647439445E+00  1.419453516E+04
8.663205060E+00  1.399265430E+04
8.678970674E+00  1.399511621E+04
8.694736288E+00  1.412859570E+04
8.710501903E+00  1.420296777E+04
8.726267517E+00  1.423114160E+04
8.742033131E+00  1.426526074E+04
8.757798745E+00  1.427376465E+04
8.773564360E+00  1.428677930E+04
8.789329974E+00  1.431835449E+04
8.805095588E+00  1.438447168E+04
8.820861203E+00  1.441344141E+04
8.836626817E+00  1.442974609E+04
8.852392431E+00  1.444175293E+04
8.868158046E+00  1.445780762E+04
8.883923660E+00  1.446874609E+04
8.899689274E+00  1.448985059E+04
8.915454888E+00  1.453759277E+04
8.931220503E+00  1.455848828E+04
8.946986117E+00  1.456588184E+04
8.962751731E+00  1.456841895E+04
8.978517346E+00  1.455627832E+04
8.994282960E+00  1.453860352E+04
9.010048574E+00  1.452276758E+04
9.025814189E+00  1.453446289E+04
9.041579803E+00  1.452007227E+04
9.057345417E+00  1.452304590E+04
9.073111031E+00  1.450322363E+04
9.088876646E+00  1.452760840E+04
9.104642260E+00  1.451907812E+04
9.120407874E+00  1.455147754E+04
9.136173489E+00  1.454832227E+04
9.151939103E+00  1.455065820E+04
9.167704717E+00  1.452858496E+04
9.183470332E+00  1.453745898E+04
9.199235946E+00  1.455004883E+04
9.215001560E+00  1.457836719E+04
9.230767175E+00  1.459601367E+04
9.246532789E+00  1.462295508E+04
9.262298403E+00  1.463420117E+04
9.278064017E+00  1.463232422E+04
9.293829632E+00  1.464279102E+04
9.309595246E+00  1.465268164E+04
9.325360860E+00  1.466729199E+04
9.341126475E+00  1.465159766E+04
9.356892089E+00  1.466039355E+04
9.372657703E+00  1.463244434E+04
9.388423318E+00  1.463487207E+04
9.404188932E+00  1.463044922E+04
9.419954546E+00  1.464377930E+04
9.435720160E+00  1.466000684E+04
9.451485775E+00  1.470045508E+04
9.467251389E+00  1.473413672E+04
9.483017003E+00  1.475893457E+04
9.498782618E+00  1.477155078E+04
9.514548232E+00  1.477801172E+04
9.530313846E+00  1.480303125E+04
9.546079461E+00  1.482948926E+04
9.561845075E+00  1.485531445E+04
9.577610689E+00  1.487971289E+04
9.593376303E+00  1.490470996E+04
9.609141918E+00  1.493201660E+04
9.624907532E+00  1.493504492E+04
9.640673146E+00  1.493863086E+04
9.656438761E+00  1.494908887E+04
9.672204375E+00  1.497640625E+04
9.687969989E+00  1.499854102E+04
9.703735604E+00  1.503293945E+04
9.719501218E+00  1.505496875E+04
9.735266832E+00  1.509562207E+04
9.751032446E+00  1.512890039E+04
9.766798061E+00  1.517953711E+04
9.782563675E+00  1.519729980E+04
9.798329289E+00  1.521919141E+04
9.814094904E+00  1.525643945E+04
9.829860518E+00  1.531988574E+04
9.845626132E+00  1.535569531E+04
9.861391747E+00  1.537892676E+04
9.877157361E+00  1.538902148E+04
9.892922975E+00  1.539685547E+04
9.908688589E+00  1.539877051E+04
9.924454204E+00  1.542035840E+04
9.940219818E+00  1.543039160E+04
9.955985432E+00  1.545876660E+04
9.971751047E+00  1.549466699E+04
9.987516661E+00  1.553167285E+04
1.000328228E+01  1.559963867E+04
1.001904789E+01  1.568715039E+04
1.003481350E+01  1.576223828E+04
1.005057912E+01  1.583086816E+04
1.006634473E+01  1.590736816E+04
1.008211035E+01  1.595296387E+04
1.009787596E+01  1.598606445E+04
1.011364158E+01  1.599750684E+04
1.012940719E+01  1.600209766E+04
1.014517280E+01  1.593755371E+04
1.016093842E+01  1.576552637E+04
1.017670403E+01  1.562220410E+04
1.019246965E+01  1.552641113E+04
1.020823526E+01  1.543283984E+04
1.022400088E+01  1.534476758E+04
1.023976649E+01  1.525582520E+04
1.025553210E+01  1.517445117E+04
1.027129772E+01  1.511520020E+04
1.028706333E+01  1.509600000E+04
1.030282895E+01  1.507038672E+04
1.031859456E+01  1.506670215E+04
1.033436018E+01  1.503863770E+04
1.035012579E+01  1.503452637E+04
1.036589140E+01  1.500902246E+04
1.038165702E+01  1.502442188E+04
1.039742263E+01  1.501445312E+04
1.041318825E+01  1.501929883E+04
1.042895386E+01  1.497052246E+04
1.044471948E+01  1.494450195E+04
1.046048509E+01  1.487455176E+04
1.047625070E+01  1.486376172E+04
1.049201632E+01  1.480469336E+04
1.050778193E+01  1.481074121E+04
1.052354755E+01  1.477113965E+04
1.053931316E+01  1.476590332E+04
1.055507878E+01  1.469469434E+04
1.057084439E+01  1.467037598E+04
1.058661000E+01  1.462718164E+04
1.060237562E+01  1.464412109E+04
1.061814123E+01  1.463909473E+04
1.063390685E+01  1.461970410E+04
1.064967246E+01  1.458276660E+04
1.066543808E+01  1.456292285E+04
1.068120369E+01  1.455077344E+04
1.069696930E+01  1.454246777E+04
1.071273492E+01  1.455013379E+04
1.072850053E+01  1.472520215E+04
1.074426615E+01  1.483052051E+04
1.076003176E+01  1.493054102E+04
1.077579738E+01  1.497212891E+04
1.079156299E+01  1.503604395E+04
1.080732860E+01  1.507645215E+04
1.082309422E+01  1.515266211E+04
1.083885983E+01  1.522022266E+04
1.085462545E+01  1.527635742E+04
1.087039106E+01  1.531707715E+04
1.088615668E+01  1.537518066E+04
1.090192229E+01  1.541846387E+04
1.091768790E+01  1.546190527E+04
1.093345352E+01  1.550812402E+04
1.094921913E+01  1.555123242E+04
1.096498475E+01  1.558147754E+04
1.098075036E+01  1.562861719E+04
1.099651598E+01  1.568437793E+04
1.101228159E+01  1.572405176E+04
1.102804720E+01  1.574275391E+04
1.104381282E+01  1.564886035E+04
1.105957843E+01  1.551139355E+04
1.107534405E+01  1.545012012E+04
1.109110966E+01  1.538544141E+04
1.110687528E+01  1.533405859E+04
1.112264089E+01  1.528117871E+04
1.113840650E+01  1.526939648E+04
1.115417212E+01  1.523724707E+04
1.116993773E+01  1.520127246E+04
1.118570335E+01  1.512656055E+04
1.120146896E+01  1.509569141E+04
1.121723458E+01  1.505270898E+04
1.123300019E+01  1.504695215E+04
1.124876581E+01  1.498504297E+04
1.126453142E+01  1.497864941E+04
1.128029703E+01  1.493282422E+04
1.129606265E+01  1.494978027E+04
1.131182826E+01  1.493540332E+04
1.132759388E+01  1.497529980E+04
1.134335949E+01  1.497882031E+04
1.135912511E+01  1.503093457E+04
1.137489072E+01  1.507804004E+04
1.139065633E+01  1.516659473E+04
1.140642195E+01  1.528200586E+04
1.142218756E+01  1.547606055E+04
1.143795318E+01  1.573907617E+04
1.145371879E+01  1.602640430E+04
1.146948441E+01  1.625941602E+04
1.148525002E+01  1.626830566E+04
1.150101563E+01  1.607891699E+04
1.151678125E+01  1.579887207E+04
1.153254686E+01  1.553093066E+04
1.154831248E+01  1.530886523E+04
1.156407809E+01  1.515036914E+04
1.157984371E+01  1.500447461E+04
1.159560932E+01  1.489163086E+04
1.161137493E+01  1.492444824E+04
1.162714055E+01  1.502076758E+04
1.164290616E+01  1.508654004E+04
1.165867178E+01  1.513684766E+04
1.167443739E+01  1.518570703E+04
1.169020301E+01  1.522012207E+04
1.170596862E+01  1.525719531E+04
1.172173423E+01  1.528748242E+04
1.173749985E+01  1.530403809E+04
1.175326546E+01  1.531393066E+04
1.176903108E+01  1.534232910E+04
1.178479669E+01  1.536555078E+04
1.180056231E+01  1.540267285E+04
1.181632792E+01  1.543780957E+04
1.183209353E+01  1.546625684E+04
1.184785915E+01  1.550075098E+04
1.186362476E+01  1.553836426E+04
1.187939038E+01  1.557653125E+04
1.189515599E+01  1.561622070E+04
1.191092161E+01  1.562535547E+04
1.192668722E+01  1.565583789E+04
1.194245283E+01  1.568414160E+04
1.195821845E+01  1.570841895E+04
1.197398406E+01  1.573070801E+04
1.198974968E+01  1.579642480E+04
1.200551529E+01  1.583036133E+04
1.202128091E+01  1.585540039E+04
1.203704652E+01  1.589148730E+04
1.205281213E+01  1.593631445E+04
1.206857775E+01  1.598385059E+04
1.208434336E+01  1.601230176E+04
1.210010898E+01  1.604552930E+04
1.211587459E+01  1.607344141E+04
1.213164021E+01  1.610461816E+04
1.214740582E+01  1.612587012E+04
1.216317143E+01  1.613726367E+04
1.217893705E+01  1.614936719E+04
1.219470266E+01  1.616016699E+04
1.221046828E+01  1.615148730E+04
1.222623389E+01  1.614300488E+04
1.224199951E+01  1.612910840E+04
1.225776512E+01  1.611778809E+04
1.227353073E+01  1.611867773E+04
1.228929635E+01  1.612030566E+04
1.230506196E+01  1.613445801E+04
1.232082758E+01  1.613549121E+04
1.233659319E+01  1.614305664E+04
1.235235881E+01  1.614478516E+04
1.236812442E+01  1.617031934E+04
1.238389003E+01  1.618208691E+04
1.239965565E+01  1.621259082E+04
1.241542126E+01  1.625070215E+04
1.243118688E+01  1.627126367E+04
1.244695249E+01  1.628533105E+04
1.246271811E+01  1.630097070E+04
1.247848372E+01  1.632374316E+04
1.249424933E+01  1.633558301E+04
1.251001495E+01  1.637239355E+04
1.252578056E+01  1.640246484E+04
1.254154618E+01  1.643652539E+04
1.255731179E+01  1.643797656E+04
1.257307741E+01  1.644493555E+04
1.258884302E+01  1.646708203E+04
1.260460864E+01  1.648466602E+04
1.262037425E+01  1.649123633E+04
1.263613986E+01  1.648691797E+04
1.265190548E+01  1.648504102E+04
1.266767109E+01  1.649830273E+04
1.268343671E+01  1.651381250E+04
1.269920232E+01  1.652390234E+04
1.271496794E+01  1.652193555E+04
1.273073355E+01  1.653014062E+04
1.274649916E+01  1.654132422E+04
1.276226478E+01  1.657529492E+04
1.277803039E+01  1.660730859E+04
1.279379601E+01  1.661852734E+04
1.280956162E+01  1.660336133E+04
1.282532724E+01  1.662214062E+04
1.284109285E+01  1.663117578E+04
1.285685846E+01  1.663939453E+04
1.287262408E+01  1.663060547E+04
1.288838969E+01  1.663697461E+04
1.290415531E+01  1.665064258E+04
1.291992092E+01  1.666940234E+04
1.293568654E+01  1.666844141E+04
1.295145215E+01  1.670131055E+04
1.296721776E+01  1.670742969E+04
1.298298338E+01  1.672821680E+04
1.299874899E+01  1.674061133E+04
1.301451461E+01  1.677754688E+04
1.303028022E+01  1.680064258E+04
1.304604584E+01  1.683875000E+04
1.306181145E+01  1.687504492E+04
1.307757706E+01  1.691359180E+04
1.309334268E+01  1.693107812E+04
1.310910829E+01  1.696491016E+04
1.312487391E+01  1.700826367E+04
1.314063952E+01  1.705464648E+04
1.315640514E+01  1.708039062E+04
1.317217075E+01  1.712499414E+04
1.318793636E+01  1.714336523E+04
1.320370198E+01  1.717874805E+04
1.321946759E+01  1.722119922E+04
1.323523321E+01  1.726850586E+04
1.325099882E+01  1.730349609E+04
1.326676444E+01  1.732788867E+04
1.328253005E+01  1.732449805E+04
1.329829566E+01  1.730497852E+04
1.331406128E+01  1.725513086E+04
1.332982689E+01  1.721977734E+04
1.334559251E+01  1.717205078E+04
1.336135812E+01  1.713266992E+04
1.337712374E+01  1.711814648E+04
1.339288935E+01  1.711639844E+04
1.340865496E+01  1.710170312E+04
1.342442058E+01  1.707832227E+04
1.344018619E+01  1.706146484E+04
1.345595181E+01  1.709802539E+04
1.347171742E+01  1.712079102E+04
1.348748304E+01  1.715945508E+04
1.350324865E+01  1.714555859E+04
1.351901426E+01  1.714317383E+04
1.353477988E+01  1.717232617E+04
1.355054549E+01  1.720359180E+04
1.356631111E+01  1.718795898E+04
1.358207672E+01  1.720021094E+04
1.359784234E+01  1.719086914E+04
1.361360795E+01  1.720860742E+04
1.362937356E+01  1.720599414E+04
1.364513918E+01  1.721735352E+04
1.366090479E+01  1.723292188E+04
1.367667041E+01  1.724793164E+04
1.369243602E+01  1.725308594E+04
1.370820164E+01  1.722776172E+04
1.372396725E+01  1.720728125E+04
1.373973286E+01  1.720121875E+04
1.375549848E+01  1.720681055E+04
1.377126409E+01  1.717765039E+04
1.378702971E+01  1.713273828E+04
1.380279532E+01  1.710621484E+04
1.381856094E+01  1.710118945E+04
1.383432655E+01  1.711791406E+04
1.385009216E+01  1.710536719E+04
1.386585778E+01  1.708356445E+04
1.388162339E+01  1.706362891E+04
1.389738901E+01  1.706452539E+04
1.391315462E+01  1.705958398E+04
1.392892024E+01  1.704765430E+04
1.394468585E+01  1.703225195E+04
1.396045146E+01  1.704450000E+04
1.397621708E+01  1.705675195E+04
1.399198269E+01  1.704424023E+04
1.400774831E+01  1.702593750E+04
1.402351392E+01  1.699208008E+04
1.403927954E+01  1.697044531E+04
1.405504515E+01  1.696447852E+04
1.407081077E+01  1.697663672E+04
1.408657638E+01  1.698080469E+04
1.410234199E+01  1.697937695E+04
1.411810761E+01  1.697403711E+04
1.413387322E+01  1.695875391E+04
1.414963884E+01  1.695762695E+04
1.416540445E+01  1.695400781E+04
1.418117007E+01  1.696371094E+04
1.419693568E+01  1.696410742E+04
1.421270129E+01  1.697447461E+04
1.422846691E+01  1.696322266E+04
1.424423252E+01  1.697417773E+04
1.425999814E+01  1.697886133E+04
1.427576375E+01  1.698578125E+04
1.429152937E+01  1.697495117E+04
1.430729498E+01  1.697941992E+04
1.432306059E+01  1.699088672E+04
1.433882621E+01  1.698701758E+04
1.435459182E+01  1.697681641E+04
1.437035744E+01  1.697890820E+04
1.438612305E+01  1.699149414E+04
1.440188867E+01  1.701053320E+04
1.441765428E+01  1.702328711E+04
1.443341989E+01  1.702408398E+04
1.444918551E+01  1.700629688E+04
1.446495112E+01  1.701512109E+04
1.448071674E+01  1.703005078E+04
1.449648235E+01  1.703780078E+04
1.451224797E+01  1.705500391E+04
1.452801358E+01  1.708423438E+04
1.454377919E+01  1.709187891E+04
1.455954481E+01  1.708948047E+04
1.457531042E+01  1.707260742E+04
1.459107604E+01  1.710538672E+04
1.460684165E+01  1.711203320E+04
1.462260727E+01  1.711963477E+04
1.463837288E+01  1.711768164E+04
1.465413849E+01  1.711239648E+04
1.466990411E+01  1.710349023E+04
1.468566972E+01  1.711659180E+04
1.470143534E+01  1.713447852E+04
1.471720095E+01  1.714900781E+04
1.473296657E+01  1.713366797E+04
1.474873218E+01  1.712800000E+04
1.476449779E+01  1.710882422E+04
1.478026341E+01  1.713869336E+04
1.479602902E+01  1.714811133E+04
1.481179464E+01  1.717179883E+04
1.482756025E+01  1.716183594E+04
1.484332587E+01  1.715641406E+04
1.485909148E+01  1.714009570E+04
1.487485709E+01  1.712419336E+04
1.489062271E+01  1.709122070E+04
1.490638832E+01  1.711582617E+04
1.492215394E+01  1.712291211E+04
1.493791955E+01  1.715006641E+04
1.495368517E+01  1.713868750E+04
1.496945078E+01  1.715866797E+04
1.498521639E+01  1.714479883E+04
1.500098201E+01  1.716544336E+04
1.501674762E+01  1.716545703E+04
1.503251324E+01  1.718708984E+04
1.504827885E+01  1.720358398E+04
1.506404447E+01  1.720828125E+04
1.507981008E+01  1.722791602E+04
1.509557569E+01  1.724737695E+04
1.511134131E+01  1.724224023E+04
1.512710692E+01  1.725413867E+04
1.514287254E+01  1.723574414E+04
1.515863815E+01  1.725624414E+04
1.517440377E+01  1.722807617E+04
1.519016938E+01  1.720538867E+04
1.520593499E+01  1.714327539E+04
1.522170061E+01  1.707942969E+04
1.523746622E+01  1.697662695E+04
1.525323184E+01  1.692234375E+04
1.526899745E+01  1.686404688E+04
1.528476307E+01  1.684935547E+04
1.530052868E+01  1.681484961E+04
1.531629429E+01  1.680202539E+04
1.533205991E+01  1.674491602E+04
1.534782552E+01  1.672500977E+04
1.536359114E+01  1.668202148E+04
1.537935675E+01  1.667884180E+04
1.539512237E+01  1.664804297E+04
1.541088798E+01  1.665279102E+04
1.542665360E+01  1.662760156E+04
1.544241921E+01  1.661406836E+04
1.545818482E+01  1.657548438E+04
1.547395044E+01  1.657798828E+04
1.548971605E+01  1.654609180E+04
1.550548167E+01  1.653324219E+04
1.552124728E+01  1.649931250E+04
1.553701290E+01  1.649949023E+04
1.555277851E+01  1.648698047E+04
1.556854412E+01  1.649612500E+04
1.558430974E+01  1.647362109E+04
1.560007535E+01  1.645456055E+04
1.561584097E+01  1.643680859E+04
1.563160658E+01  1.642904883E+04
1.564737220E+01  1.642400781E+04
1.566313781E+01  1.641725781E+04
1.567890342E+01  1.638610742E+04
1.569466904E+01  1.638024121E+04
1.571043465E+01  1.634680078E+04
1.572620027E+01  1.632977832E+04
1.574196588E+01  1.632009863E+04
1.575773150E+01  1.632852051E+04
1.577349711E+01  1.632728906E+04
1.578926272E+01  1.631800098E+04
1.580502834E+01  1.629069336E+04
1.582079395E+01  1.626523340E+04
1.583655957E+01  1.626309473E+04
1.585232518E+01  1.625222656E+04
1.586809080E+01  1.626460254E+04
1.588385641E+01  1.624522754E+04
1.589962202E+01  1.621824316E+04
1.591538764E+01  1.621422754E+04
1.593115325E+01  1.620659277E+04
1.594691887E+01  1.619294727E+04
1.596268448E+01  1.619174316E+04
1.597845010E+01  1.616291504E+04
1.599421571E+01  1.613470508E+04
1.600998132E+01  1.611944824E+04
1.602574694E+01  1.610955176E+04
1.604151255E+01  1.611828320E+04
1.605727817E+01  1.611386035E+04
1.607304378E+01  1.610597656E+04
1.608880940E+01  1.609901367E+04
1.610457501E+01  1.607464941E+04
1.612034062E+01  1.605829199E+04
1.613610624E+01  1.604412598E+04
1.615187185E+01  1.605413770E+04
1.616763747E+01  1.603489453E+04
1.618340308E+01  1.602831934E+04
1.619916870E+01  1.601752930E+04
1.621493431E+01  1.599710449E+04
1.623069992E+01  1.596397754E+04
1.624646554E+01  1.595092773E+04
1.626223115E+01  1.595151465E+04
1.627799677E+01  1.593230469E+04
1.629376238E+01  1.592230371E+04
1.630952800E+01  1.592701660E+04
1.632529361E+01  1.591569434E+04
1.634105922E+01  1.588798730E+04
1.635682484E+01  1.589303516E+04
1.637259045E+01  1.591566699E+04
1.638835607E+01  1.592014844E+04
1.640412168E+01  1.589546582E+04
1.641988730E+01  1.587883203E+04
1.643565291E+01  1.586209766E+04
1.645141852E+01  1.585207520E+04
1.646718414E+01  1.585721289E+04
1.648294975E+01  1.585938770E+04
1.649871537E+01  1.584753027E+04
1.651448098E+01  1.585132422E+04
1.653024660E+01  1.582198145E+04
1.654601221E+01  1.581794824E+04
1.656177782E+01  1.582678809E+04
1.657754344E+01  1.583116602E+04
1.659330905E+01  1.581388086E+04
1.660907467E+01  1.579224707E+04
1.662484028E+01  1.577511914E+04
1.664060590E+01  1.576357812E+04
1.665637151E+01  1.575414062E+04
1.667213712E+01  1.577518066E+04
1.668790274E+01  1.577408594E+04
1.670366835E+01  1.576586328E+04
1.671943397E+01  1.573936523E+04
1.673519958E+01  1.572351562E+04
1.675096520E+01  1.570436133E+04
1.676673081E+01  1.569610938E+04
1.678249642E+01  1.566751660E+04
1.679826204E+01  1.567563086E+04
1.681402765E+01  1.567298242E+04
1.682979327E+01  1.565613281E+04
1.684555888E+01  1.564006348E+04
1.686132450E+01  1.565380859E+04
1.687709011E+01  1.564506152E+04
1.689285573E+01  1.562739453E+04
1.690862134E+01  1.562636328E+04
1.692438695E+01  1.563507227E+04
1.694015257E+01  1.563445801E+04
1.695591818E+01  1.563716602E+04
1.697168380E+01  1.564656348E+04
1.698744941E+01  1.564437402E+04
1.700321503E+01  1.562942188E+04
1.701898064E+01  1.562404102E+04
1.703474625E+01  1.559345898E+04
1.705051187E+01  1.555295020E+04
1.706627748E+01  1.552455371E+04
1.708204310E+01  1.557119629E+04
1.709780871E+01  1.558072461E+04
1.711357433E+01  1.558696387E+04
1.712933994E+01  1.558120605E+04
1.714510555E+01  1.558029883E+04
1.716087117E+01  1.559589648E+04
1.717663678E+01  1.559214258E+04
1.719240240E+01  1.558829785E+04
1.720816801E+01  1.556571777E+04
1.722393363E+01  1.554097363E+04
1.723969924E+01  1.554729199E+04
1.725546485E+01  1.555578809E+04
1.727123047E+01  1.554488672E+04
1.728699608E+01  1.552686328E+04
1.730276170E+01  1.550142383E+04
1.731852731E+01  1.549321680E+04
1.733429293E+01  1.549315332E+04
1.735005854E+01  1.545287598E+04
1.736582415E+01  1.543804688E+04
1.738158977E+01  1.541109766E+04
1.739735538E+01  1.538716504E+04
1.741312100E+01  1.538437402E+04
1.742888661E+01  1.537143457E+04
1.744465223E+01  1.535641211E+04
1.746041784E+01  1.533147852E+04
1.747618345E+01  1.533416504E+04
1.749194907E+01  1.532524707E+04
1.750771468E+01  1.530316797E+04
1.752348030E+01  1.527729688E+04
1.753924591E+01  1.526514453E+04
1.755501153E+01  1.526274023E+04
1.757077714E+01  1.524095898E+04
1.758654275E+01  1.522488477E+04
1.760230837E+01  1.520123926E+04
1.761807398E+01  1.519046191E+04
1.763383960E+01  1.517354492E+04
1.764960521E+01  1.515740723E+04
1.766537083E+01  1.514532324E+04
1.768113644E+01  1.512636230E+04
1.769690205E+01  1.509904688E+04
1.771266767E+01  1.507254102E+04
1.772843328E+01  1.505077344E+04
1.774419890E+01  1.504319531E+04
1.775996451E+01  1.504557715E+04
1.777573013E+01  1.503636523E+04
1.779149574E+01  1.501426758E+04
1.780726135E+01  1.500668359E+04
1.782302697E+01  1.497326758E+04
1.783879258E+01  1.494288965E+04
1.785455820E+01  1.492593945E+04
1.787032381E+01  1.491075977E+04
1.788608943E+01  1.491134570E+04
1.790185504E+01  1.489353223E+04
1.791762065E+01  1.492279004E+04
1.793338627E+01  1.491045020E+04
1.794915188E+01  1.488516016E+04
1.796491750E+01  1.484532715E+04
1.798068311E+01  1.481138379E+04
1.799644873E+01  1.479350781E+04
1.801221434E+01  1.478877051E+04
1.802797995E+01  1.478129102E+04
1.804374557E+01  1.478414160E+04
1.805951118E+01  1.476559082E+04
1.807527680E+01  1.473367480E+04
1.809104241E+01  1.470624219E+04
1.810680803E+01  1.469968555E+04
1.812257364E+01  1.470320898E+04
1.813833925E+01  1.467435547E+04
1.815410487E+01  1.465464746E+04
1.816987048E+01  1.464602344E+04
1.818563610E+01  1.463266113E+04
1.820140171E+01  1.462045117E+04
1.821716733E+01  1.459655176E+04
1.823293294E+01  1.456499707E+04
1.824869856E+01  1.455115918E+04
1.826446417E+01  1.453363379E+04
1.828022978E+01  1.454504492E+04
1.829599540E+01  1.454542383E+04
1.831176101E+01  1.452312695E+04
1.832752663E+01  1.449723047E+04
1.834329224E+01  1.447210938E+04
1.835905786E+01  1.445555078E+04
1.837482347E+01  1.445190430E+04
1.839058908E+01  1.444218750E+04
1.840635470E+01  1.443885645E+04
1.842212031E+01  1.440044824E+04
1.843788593E+01  1.439571094E+04
1.845365154E+01  1.439213281E+04
1.846941716E+01  1.438149121E+04
1.848518277E+01  1.437791309E+04
1.850094838E+01  1.436449902E+04
1.851671400E+01  1.434765332E+04
1.853247961E+01  1.431734863E+04
1.854824523E+01  1.427195605E+04
1.856401084E+01  1.425791992E+04
1.857977646E+01  1.423902930E+04
1.859554207E+01  1.422314648E+04
1.861130768E+01  1.421836816E+04
1.862707330E+01  1.418111230E+04
1.864283891E+01  1.416793750E+04
1.865860453E+01  1.416734277E+04
1.867437014E+01  1.415800195E+04
1.869013576E+01  1.414625977E+04
1.870590137E+01  1.413180957E+04
1.872166698E+01  1.411476367E+04
1.873743260E+01  1.410553027E+04
1.875319821E+01  1.409037012E+04
1.876896383E+01  1.407042285E+04
1.878472944E+01  1.404799316E+04
1.880049506E+01  1.399895801E+04
1.881626067E+01  1.399991113E+04
1.883202628E+01  1.399908105E+04
1.884779190E+01  1.398294141E+04
1.886355751E+01  1.399269434E+04
1.887932313E+01  1.398206934E+04
1.889508874E+01  1.397535645E+04
1.891085436E+01  1.394085742E+04
1.892661997E+01  1.392647559E+04
1.894238558E+01  1.390342383E+04
1.895815120E+01  1.390161035E+04
1.897391681E+01  1.387569531E+04
1.898968243E+01  1.386091504E+04
1.900544804E+01  1.384092090E+04
1.902121366E+01  1.383674121E+04
1.903697927E+01  1.384884766E+04
1.905274488E+01  1.382012598E+04
1.906851050E+01  1.382522656E+04
1.908427611E+01  1.382076367E+04
1.910004173E+01  1.384123535E+04
1.911580734E+01  1.382769238E+04
1.913157296E+01  1.380998438E+04
1.914733857E+01  1.382405469E+04
1.916310418E+01  1.380823730E+04
1.917886980E+01  1.381588477E+04
1.919463541E+01  1.381735840E+04
1.921040103E+01  1.382464258E+04
1.922616664E+01  1.383364746E+04
1.924193226E+01  1.382373438E+04
1.925769787E+01  1.385246191E+04
1.927346348E+01  1.383741602E+04
1.928922910E+01  1.383170020E+04
1.930499471E+01  1.382319043E+04
1.932076033E+01  1.381964258E+04
1.933652594E+01  1.381903711E+04
1.935229156E+01  1.381384375E+04
1.936805717E+01  1.380741406E+04
1.938382278E+01  1.379191699E+04
1.939958840E+01  1.379997852E+04
1.941535401E+01  1.379045410E+04
1.943111963E+01  1.379716504E+04
1.944688524E+01  1.380253418E+04
1.946265086E+01  1.383731348E+04
1.947841647E+01  1.387105371E+04
1.949418208E+01  1.386003125E+04
1.950994770E+01  1.386397266E+04
1.952571331E+01  1.387980957E+04
1.954147893E+01  1.390736816E+04
1.955724454E+01  1.391968945E+04
1.957301016E+01  1.389458594E+04
1.958877577E+01  1.388555371E+04
1.960454138E+01  1.388248438E+04
1.962030700E+01  1.389152148E+04
1.963607261E+01  1.389494434E+04
1.965183823E+01  1.387618359E+04
1.966760384E+01  1.387459473E+04
1.968336946E+01  1.388745605E+04
1.969913507E+01  1.387916602E+04
1.971490069E+01  1.387955957E+04
1.973066630E+01  1.389214648E+04
1.974643191E+01  1.391847168E+04
1.976219753E+01  1.392865527E+04
1.977796314E+01  1.396092676E+04
1.979372876E+01  1.396898633E+04
1.980949437E+01  1.396870996E+04
1.982525999E+01  1.397370703E+04
1.984102560E+01  1.399056445E+04
1.985679121E+01  1.399420703E+04
1.987255683E+01  1.397912598E+04
1.988832244E+01  1.398654980E+04
1.990408806E+01  1.399122949E+04
1.991985367E+01  1.400565430E+04
1.993561929E+01  1.400115625E+04
1.995138490E+01  1.399299316E+04
1.996715051E+01  1.397476660E+04
1.998291613E+01  1.397704590E+04
1.999868174E+01  1.396161328E+04
2.001444736E+01  1.395987793E+04
2.003021297E+01  1.393878906E+04
2.004597859E+01  1.393933984E+04
2.006174420E+01  1.392390039E+04
2.007750981E+01  1.392928809E+04
2.009327543E+01  1.390038477E+04
2.010904104E+01  1.387780176E+04
2.012480666E+01  1.385800781E+04
2.014057227E+01  1.385864844E+04
2.015633789E+01  1.384929492E+04
2.017210350E+01  1.383996094E+04
2.018786911E+01  1.380778320E+04
2.020363473E+01  1.378070605E+04
2.021940034E+01  1.376833789E+04
2.023516596E+01  1.377559180E+04
2.025093157E+01  1.377739453E+04
2.026669719E+01  1.377097363E+04
2.028246280E+01  1.374458789E+04
2.029822841E+01  1.371776758E+04
2.031399403E+01  1.368714062E+04
2.032975964E+01  1.364241602E+04
2.034552526E+01  1.362759082E+04
2.036129087E+01  1.363561230E+04
2.037705649E+01  1.364344727E+04
2.039282210E+01  1.364288867E+04
2.040858771E+01  1.363364941E+04
2.042435333E+01  1.361766602E+04
2.044011894E+01  1.360661426E+04
2.045588456E+01  1.360548145E+04
2.047165017E+01  1.358959961E+04
2.048741579E+01  1.358033398E+04
2.050318140E+01  1.358150684E+04
2.051894701E+01  1.358824609E+04
2.053471263E+01  1.358704883E+04
2.055047824E+01  1.357053906E+04
2.056624386E+01  1.354153516E+04
2.058200947E+01  1.352792773E+04
2.059777509E+01  1.352462988E+04
2.061354070E+01  1.351714258E+04
2.062930631E+01  1.349689844E+04
2.064507193E+01  1.347820215E+04
2.066083754E+01  1.344918457E+04
2.067660316E+01  1.343673730E+04
2.069236877E+01  1.343798828E+04
2.070813439E+01  1.344518555E+04
2.072390000E+01  1.343977930E+04
2.073966561E+01  1.343598438E+04
2.075543123E+01  1.343825488E+04
2.077119684E+01  1.342428418E+04
2.078696246E+01  1.341559277E+04
2.080272807E+01  1.338112402E+04
2.081849369E+01  1.335248242E+04
2.083425930E+01  1.333948242E+04
2.085002491E+01  1.334013184E+04
2.086579053E+01  1.334304492E+04
2.088155614E+01  1.333234766E+04
2.089732176E+01  1.330748145E+04
2.091308737E+01  1.329665234E+04
2.092885299E+01  1.330735449E+04
2.094461860E+01  1.330843066E+04
2.096038421E+01  1.327899609E+04
2.097614983E+01  1.326134668E+04
2.099191544E+01  1.326129199E+04
2.100768106E+01  1.324256934E+04
2.102344667E+01  1.323567871E+04
2.103921229E+01  1.323020312E+04
2.105497790E+01  1.322590430E+04
2.107074351E+01  1.319792871E+04
2.108650913E+01  1.319914453E+04
2.110227474E+01  1.318454395E+04
2.111804036E+01  1.319347656E+04
2.113380597E+01  1.318113770E+04
2.114957159E+01  1.316176074E+04
2.116533720E+01  1.313547168E+04
2.118110282E+01  1.312956738E+04
2.119686843E+01  1.311297266E+04
2.121263404E+01  1.311417871E+04
2.122839966E+01  1.313563867E+04
2.124416527E+01  1.313365723E+04
2.125993089E+01  1.311316895E+04
2.127569650E+01  1.308462793E+04
2.129146212E+01  1.306649219E+04
2.130722773E+01  1.304797559E+04
2.132299334E+01  1.303550586E+04
2.133875896E+01  1.304584473E+04
2.135452457E+01  1.304794629E+04
2.137029019E+01  1.305399414E+04
2.138605580E+01  1.305056055E+04
2.140182142E+01  1.301811816E+04
2.141758703E+01  1.298484570E+04
2.143335264E+01  1.294290918E+04
2.144911826E+01  1.295489648E+04
2.146488387E+01  1.296820215E+04
2.148064949E+01  1.293581055E+04
2.149641510E+01  1.287977539E+04
2.151218072E+01  1.283013281E+04
2.152794633E+01  1.284994629E+04
2.154371194E+01  1.289459570E+04
2.155947756E+01  1.290433105E+04
2.157524317E+01  1.291998535E+04
2.159100879E+01  1.290981836E+04
2.160677440E+01  1.289861133E+04
2.162254002E+01  1.287147070E+04
2.163830563E+01  1.287579590E+04
2.165407124E+01  1.288173535E+04
2.166983686E+01  1.288169824E+04
2.168560247E+01  1.287503418E+04
2.170136809E+01  1.284501074E+04
2.171713370E+01  1.282611816E+04
2.173289932E+01  1.283319336E+04
2.174866493E+01  1.284317285E+04
2.176443054E+01  1.282341895E+04
2.178019616E+01  1.279405957E+04
2.179596177E+01  1.275725488E+04
2.181172739E+01  1.273731543E+04
2.182749300E+01  1.271196191E+04
2.184325862E+01  1.271773633E+04
2.185902423E+01  1.274200977E+04
2.187478984E+01  1.277279395E+04
2.189055546E+01  1.275444336E+04
2.190632107E+01  1.274286426E+04
2.192208669E+01  1.273244727E+04
2.193785230E+01  1.270633301E+04
2.195361792E+01  1.269037109E+04
2.196938353E+01  1.267366895E+04
2.198514914E+01  1.266708008E+04
2.200091476E+01  1.263417480E+04
2.201668037E+01  1.263525488E+04
2.203244599E+01  1.263857422E+04
2.204821160E+01  1.262251172E+04
2.206397722E+01  1.261371387E+04
2.207974283E+01  1.260350879E+04
2.209550844E+01  1.261016406E+04
2.211127406E+01  1.260502930E+04
2.212703967E+01  1.259528516E+04
2.214280529E+01  1.255746191E+04
2.215857090E+01  1.254412988E+04
2.217433652E+01  1.259302734E+04
2.219010213E+01  1.262665430E+04
2.220586774E+01  1.255495117E+04
2.222163336E+01  1.247674805E+04
2.223739897E+01  1.245352148E+04
2.225316459E+01  1.245233301E+04
2.226893020E+01  1.245457812E+04
2.228469582E+01  1.243415332E+04
2.230046143E+01  1.245010059E+04
2.231622704E+01  1.244701758E+04
2.233199266E+01  1.246236816E+04
2.234775827E+01  1.245865234E+04
2.236352389E+01  1.245139062E+04
2.237928950E+01  1.241264453E+04
2.239505512E+01  1.242916992E+04
2.241082073E+01  1.241732617E+04
2.242658634E+01  1.242729199E+04
2.244235196E+01  1.242369824E+04
2.245811757E+01  1.239716797E+04
2.247388319E+01  1.234225488E+04
2.248964880E+01  1.232140723E+04
2.250541442E+01  1.231101465E+04
2.252118003E+01  1.230341895E+04
2.253694565E+01  1.229312891E+04
2.255271126E+01  1.226948535E+04
2.256847687E+01  1.224631738E+04
2.258424249E+01  1.225891016E+04
2.260000810E+01  1.228020898E+04
2.261577372E+01  1.226739160E+04
2.263153933E+01  1.223904492E+04
2.264730495E+01  1.225183789E+04
2.266307056E+01  1.225292969E+04
2.267883617E+01  1.219579688E+04
2.269460179E+01  1.218654785E+04
2.271036740E+01  1.222300293E+04
2.272613302E+01  1.222523633E+04
2.274189863E+01  1.220330859E+04
2.275766425E+01  1.215465332E+04
2.277342986E+01  1.216259277E+04
2.278919547E+01  1.217292676E+04
2.280496109E+01  1.218438379E+04
2.282072670E+01  1.217687500E+04
2.283649232E+01  1.217341992E+04
2.285225793E+01  1.215882617E+04
2.286802355E+01  1.213995801E+04
2.288378916E+01  1.210283301E+04
2.289955477E+01  1.207321387E+04
2.291532039E+01  1.205045898E+04
2.293108600E+01  1.203764258E+04
2.294685162E+01  1.203023047E+04
2.296261723E+01  1.203303223E+04
2.297838285E+01  1.206973633E+04
2.299414846E+01  1.210584277E+04
2.300991407E+01  1.212521680E+04
2.302567969E+01  1.210031738E+04
2.304144530E+01  1.203502930E+04
2.305721092E+01  1.197943164E+04
2.307297653E+01  1.195409082E+04
2.308874215E+01  1.195090625E+04
2.310450776E+01  1.194284180E+04
2.312027337E+01  1.198406445E+04
2.313603899E+01  1.193993945E+04
2.315180460E+01  1.193180371E+04
2.316757022E+01  1.191787402E+04
2.318333583E+01  1.184286719E+04
2.319910145E+01  1.183403809E+04
2.321486706E+01  1.185093262E+04
2.323063267E+01  1.186283301E+04
2.324639829E+01  1.180570605E+04
2.326216390E+01  1.175507715E+04
2.327792952E+01  1.176128125E+04
2.329369513E+01  1.189593750E+04
2.330946075E+01  1.195900781E+04
2.332522636E+01  1.190226660E+04
2.334099197E+01  1.181610059E+04
2.335675759E+01  1.179175684E+04
2.337252320E+01  1.180763770E+04
2.338828882E+01  1.178150781E+04
2.340405443E+01  1.182069922E+04
2.341982005E+01  1.179743848E+04
2.343558566E+01  1.182375195E+04
2.345135127E+01  1.174744727E+04
2.346711689E+01  1.174073633E+04
2.348288250E+01  1.177106445E+04
2.349864812E+01  1.190156348E+04
2.351441373E+01  1.203838867E+04
2.353017935E+01  1.197125293E+04
2.354594496E+01  1.179518164E+04
2.356171057E+01  1.164798242E+04
2.357747619E+01  1.173314160E+04
2.359324180E+01  1.201867773E+04
2.360900742E+01  1.206230371E+04
2.362477303E+01  1.210693652E+04
2.364053865E+01  1.191735840E+04
2.365630426E+01  1.193084180E+04
2.367206987E+01  1.178851660E+04
2.368783549E+01  1.158687793E+04
2.370360110E+01  1.109458008E+04
2.371936672E+01  1.087604785E+04
2.373513233E+01  1.065824219E+04
2.375089795E+01  1.032235547E+04
2.376666356E+01  9.763198242E+03
