# == pyFAI calibration ==
# SplineFile: None
# PixelSize: 1.720e-04, 1.720e-04 m
# PONI: 8.722e-02, 8.342e-02 m
# Distance Sample to Detector: 0.284634930882 m
# Rotations: -0.000251 0.000603 -0.000000 rad
# 
# == Fit2d calibration ==
# Distance Sample-beamCenter: 284.635 mm
# Center: x=485.389, y=508.119 pix
# Tilt: 0.037 deg  TiltPlanRot: 67.409 deg
# 
# Wavelength: 3.344e-11
# Polarization factor: 0.99
# Normalization factor: None
#
# 2th_deg	 I
7.882808091E-03  1.461443024E+02
2.364842239E-02  1.525713806E+02
3.941403669E-02  1.477479553E+02
5.517965100E-02  1.314647827E+02
7.094526530E-02  1.105973358E+02
8.671087960E-02  1.039209518E+02
1.024764939E-01  9.296318817E+01
1.182421082E-01  9.223041534E+01
1.340077225E-01  8.522856140E+01
1.497733368E-01  8.862271881E+01
1.655389511E-01  8.218970490E+01
1.813045654E-01  8.418630219E+01
1.970701797E-01  7.912126923E+01
2.128357940E-01  8.245389557E+01
2.286014083E-01  7.923511505E+01
2.443670226E-01  7.988534546E+01
2.601326369E-01  7.561667633E+01
2.758982512E-01  7.610272217E+01
2.916638655E-01  7.716374207E+01
3.074294798E-01  8.763153839E+01
3.231950941E-01  9.419843292E+01
3.389607084E-01  9.867743683E+01
3.547263227E-01  9.877828217E+01
3.704919370E-01  1.019342194E+02
3.862575513E-01  1.060845413E+02
4.020231656E-01  1.092823257E+02
4.177887799E-01  1.111331482E+02
4.335543942E-01  1.109658432E+02
4.493200085E-01  1.121185913E+02
4.650856228E-01  1.128536224E+02
4.808512371E-01  1.141501160E+02
4.966168514E-01  1.138711548E+02
5.123824657E-01  1.154870682E+02
5.281480800E-01  1.166331024E+02
5.439136943E-01  1.183722153E+02
5.596793086E-01  1.169209671E+02
5.754449229E-01  1.174360733E+02
5.912105372E-01  1.176857452E+02
6.069761516E-01  1.195879288E+02
6.227417659E-01  1.195618515E+02
6.385073802E-01  1.197342758E+02
6.542729945E-01  1.201437607E+02
6.700386088E-01  1.215831223E+02
6.858042231E-01  1.225943527E+02
7.015698374E-01  1.229655380E+02
7.173354517E-01  1.225991211E+02
7.331010660E-01  1.220028229E+02
7.488666803E-01  1.234471664E+02
7.646322946E-01  1.257850266E+02
7.803979089E-01  1.255115967E+02
7.961635232E-01  1.252017059E+02
8.119291375E-01  1.231370468E+02
8.276947518E-01  1.226835327E+02
8.434603661E-01  1.219754791E+02
8.592259804E-01  1.249359970E+02
8.749915947E-01  1.257482758E+02
8.907572090E-01  1.265550461E+02
9.065228233E-01  1.252440262E+02
9.222884376E-01  1.263846283E+02
9.380540519E-01  1.268198090E+02
9.538196662E-01  1.285948944E+02
9.695852805E-01  1.274816666E+02
9.853508948E-01  1.277059021E+02
1.001116509E+00  1.280823975E+02
1.016882123E+00  1.284629517E+02
1.032647738E+00  1.283657837E+02
1.048413352E+00  1.287851257E+02
1.064178966E+00  1.298595581E+02
1.079944581E+00  1.307608643E+02
1.095710195E+00  1.303626709E+02
1.111475809E+00  1.298490601E+02
1.127241424E+00  1.307652588E+02
1.143007038E+00  1.321381226E+02
1.158772652E+00  1.325447540E+02
1.174538266E+00  1.328213501E+02
1.190303881E+00  1.329995728E+02
1.206069495E+00  1.331999359E+02
1.221835109E+00  1.341117554E+02
1.237600724E+00  1.356247101E+02
1.253366338E+00  1.363283691E+02
1.269131952E+00  1.371249084E+02
1.284897567E+00  1.393863678E+02
1.300663181E+00  1.438883972E+02
1.316428795E+00  1.521595612E+02
1.332194409E+00  1.674672546E+02
1.347960024E+00  2.070112457E+02
1.363725638E+00  2.838715515E+02
1.379491252E+00  3.902254944E+02
1.395256867E+00  5.330115356E+02
1.411022481E+00  6.804848633E+02
1.426788095E+00  8.135222168E+02
1.442553710E+00  9.471876831E+02
1.458319324E+00  1.059606689E+03
1.474084938E+00  1.195616699E+03
1.489850552E+00  1.307596313E+03
1.505616167E+00  1.439388062E+03
1.521381781E+00  1.579853394E+03
1.537147395E+00  1.692994263E+03
1.552913010E+00  1.815364380E+03
1.568678624E+00  1.924733032E+03
1.584444238E+00  2.057515869E+03
1.600209853E+00  2.183923584E+03
1.615975467E+00  2.333799316E+03
1.631741081E+00  2.479210449E+03
1.647506695E+00  2.616155518E+03
1.663272310E+00  2.748460693E+03
1.679037924E+00  2.897635498E+03
1.694803538E+00  3.054338623E+03
1.710569153E+00  3.230942871E+03
1.726334767E+00  3.404026611E+03
1.742100381E+00  3.601277588E+03
1.757865996E+00  3.768848877E+03
1.773631610E+00  3.952980957E+03
1.789397224E+00  4.158794434E+03
1.805162838E+00  4.353690918E+03
1.820928453E+00  4.520813965E+03
1.836694067E+00  4.674833008E+03
1.852459681E+00  4.805973633E+03
1.868225296E+00  4.936848145E+03
1.883990910E+00  5.050277832E+03
1.899756524E+00  5.183312500E+03
1.915522139E+00  5.291554199E+03
1.931287753E+00  5.392785156E+03
1.947053367E+00  5.454094238E+03
1.962818981E+00  5.565782227E+03
1.978584596E+00  5.682756836E+03
1.994350210E+00  5.805905273E+03
2.010115824E+00  5.877161133E+03
2.025881439E+00  5.977210449E+03
2.041647053E+00  6.080368164E+03
2.057412667E+00  6.154577637E+03
2.073178282E+00  6.250812500E+03
2.088943896E+00  6.323621094E+03
2.104709510E+00  6.424917480E+03
2.120475125E+00  6.486404785E+03
2.136240739E+00  6.569075195E+03
2.152006353E+00  6.644421875E+03
2.167771967E+00  6.753768066E+03
2.183537582E+00  6.826858887E+03
2.199303196E+00  6.904708008E+03
2.215068810E+00  6.956898926E+03
2.230834425E+00  7.008140625E+03
2.246600039E+00  7.080456543E+03
2.262365653E+00  7.146551758E+03
2.278131268E+00  7.257102539E+03
2.293896882E+00  7.314097168E+03
2.309662496E+00  7.408148926E+03
2.325428110E+00  7.448401855E+03
2.341193725E+00  7.521835449E+03
2.356959339E+00  7.546194824E+03
2.372724953E+00  7.620479980E+03
2.388490568E+00  7.704828613E+03
2.404256182E+00  7.769112793E+03
2.420021796E+00  7.835497070E+03
2.435787411E+00  7.850937500E+03
2.451553025E+00  7.927781738E+03
2.467318639E+00  7.962267578E+03
2.483084253E+00  8.031000977E+03
2.498849868E+00  8.070674316E+03
2.514615482E+00  8.142612793E+03
2.530381096E+00  8.175128906E+03
2.546146711E+00  8.216743164E+03
2.561912325E+00  8.236621094E+03
2.577677939E+00  8.282495117E+03
2.593443554E+00  8.341099609E+03
2.609209168E+00  8.402787109E+03
2.624974782E+00  8.476342773E+03
2.640740396E+00  8.515802734E+03
2.656506011E+00  8.575482422E+03
2.672271625E+00  8.585953125E+03
2.688037239E+00  8.638322266E+03
2.703802854E+00  8.634670898E+03
2.719568468E+00  8.682355469E+03
2.735334082E+00  8.701649414E+03
2.751099697E+00  8.760440430E+03
2.766865311E+00  8.791516602E+03
2.782630925E+00  8.827667969E+03
2.798396539E+00  8.860804688E+03
2.814162154E+00  8.882180664E+03
2.829927768E+00  8.912382812E+03
2.845693382E+00  8.916044922E+03
2.861458997E+00  8.979581055E+03
2.877224611E+00  9.002196289E+03
2.892990225E+00  9.064089844E+03
2.908755840E+00  9.036900391E+03
2.924521454E+00  8.940328125E+03
2.940287068E+00  8.825427734E+03
2.956052682E+00  8.741274414E+03
2.971818297E+00  8.678601562E+03
2.987583911E+00  8.623641602E+03
3.003349525E+00  8.605139648E+03
3.019115140E+00  8.561705078E+03
3.034880754E+00  8.539620117E+03
3.050646368E+00  8.487045898E+03
3.066411983E+00  8.470330078E+03
3.082177597E+00  8.427592773E+03
3.097943211E+00  8.440292969E+03
3.113708825E+00  8.420230469E+03
3.129474440E+00  8.402462891E+03
3.145240054E+00  8.375123047E+03
3.161005668E+00  8.340409180E+03
3.176771283E+00  8.326572266E+03
3.192536897E+00  8.288812500E+03
3.208302511E+00  8.286748047E+03
3.224068126E+00  8.269930664E+03
3.239833740E+00  8.283355469E+03
3.255599354E+00  8.256088867E+03
3.271364969E+00  8.246379883E+03
3.287130583E+00  8.200339844E+03
3.302896197E+00  8.197863281E+03
3.318661811E+00  8.188203613E+03
3.334427426E+00  8.186351074E+03
3.350193040E+00  8.188673828E+03
3.365958654E+00  8.165641602E+03
3.381724269E+00  8.175113770E+03
3.397489883E+00  8.155108398E+03
3.413255497E+00  8.147338379E+03
3.429021112E+00  8.135752441E+03
3.444786726E+00  8.150309082E+03
3.460552340E+00  8.122442383E+03
3.476317954E+00  8.093545410E+03
3.492083569E+00  8.081428223E+03
3.507849183E+00  8.227054688E+03
3.523614797E+00  8.361810547E+03
3.539380412E+00  8.468667969E+03
3.555146026E+00  8.566536133E+03
3.570911640E+00  8.617050781E+03
3.586677255E+00  8.701036133E+03
3.602442869E+00  8.722091797E+03
3.618208483E+00  8.789041016E+03
3.633974097E+00  8.810482422E+03
3.649739712E+00  8.874856445E+03
3.665505326E+00  8.909510742E+03
3.681270940E+00  8.972328125E+03
3.697036555E+00  8.987491211E+03
3.712802169E+00  9.027101562E+03
3.728567783E+00  9.092537109E+03
3.744333398E+00  9.141855469E+03
3.760099012E+00  9.175300781E+03
3.775864626E+00  9.187142578E+03
3.791630240E+00  9.233974609E+03
3.807395855E+00  9.248238281E+03
3.823161469E+00  9.270001953E+03
3.838927083E+00  9.150266602E+03
3.854692698E+00  9.061191406E+03
3.870458312E+00  8.980573242E+03
3.886223926E+00  8.920067383E+03
3.901989541E+00  8.867599609E+03
3.917755155E+00  8.812602539E+03
3.933520769E+00  8.784667969E+03
3.949286383E+00  8.746983398E+03
3.965051998E+00  8.729092773E+03
3.980817612E+00  8.681011719E+03
3.996583226E+00  8.684533203E+03
4.012348841E+00  8.628006836E+03
4.028114455E+00  8.589151367E+03
4.043880069E+00  8.556763672E+03
4.059645684E+00  8.551849609E+03
4.075411298E+00  8.549871094E+03
4.091176912E+00  8.527358398E+03
4.106942526E+00  8.520818359E+03
4.122708141E+00  8.491640625E+03
4.138473755E+00  8.486611328E+03
4.154239369E+00  8.461501953E+03
4.170004984E+00  8.482211914E+03
4.185770598E+00  8.449995117E+03
4.201536212E+00  8.429267578E+03
4.217301827E+00  8.389444336E+03
4.233067441E+00  8.372952148E+03
4.248833055E+00  8.358082031E+03
4.264598670E+00  8.343416016E+03
4.280364284E+00  8.331785156E+03
4.296129898E+00  8.317454102E+03
4.311895512E+00  8.317910156E+03
4.327661127E+00  8.284558594E+03
4.343426741E+00  8.296508789E+03
4.359192355E+00  8.268079102E+03
4.374957970E+00  8.274840820E+03
4.390723584E+00  8.246599609E+03
4.406489198E+00  8.232153320E+03
4.422254813E+00  8.303830078E+03
4.438020427E+00  8.459965820E+03
4.453786041E+00  8.574169922E+03
4.469551655E+00  8.675542969E+03
4.485317270E+00  8.736942383E+03
4.501082884E+00  8.796691406E+03
4.516848498E+00  8.848712891E+03
4.532614113E+00  8.875805664E+03
4.548379727E+00  8.923843750E+03
4.564145341E+00  8.935071289E+03
4.579910956E+00  8.984639648E+03
4.595676570E+00  8.995945312E+03
4.611442184E+00  9.023883789E+03
4.627207798E+00  9.061666992E+03
4.642973413E+00  9.103103516E+03
4.658739027E+00  9.139906250E+03
4.674504641E+00  9.164728516E+03
4.690270256E+00  9.188196289E+03
4.706035870E+00  9.199915039E+03
4.721801484E+00  9.236638672E+03
4.737567099E+00  9.261292969E+03
4.753332713E+00  9.285635742E+03
4.769098327E+00  9.314294922E+03
4.784863941E+00  9.330461914E+03
4.800629556E+00  9.341726562E+03
4.816395170E+00  9.366953125E+03
4.832160784E+00  9.397113281E+03
4.847926399E+00  9.431618164E+03
4.863692013E+00  9.450739258E+03
4.879457627E+00  9.464170898E+03
4.895223242E+00  9.492891602E+03
4.910988856E+00  9.514402344E+03
4.926754470E+00  9.544918945E+03
4.942520084E+00  9.541478516E+03
4.958285699E+00  9.583521484E+03
4.974051313E+00  9.585247070E+03
4.989816927E+00  9.616159180E+03
5.005582542E+00  9.641852539E+03
5.021348156E+00  9.668794922E+03
5.037113770E+00  9.667532227E+03
5.052879385E+00  9.674705078E+03
5.068644999E+00  9.681539062E+03
5.084410613E+00  9.681580078E+03
5.100176227E+00  9.721062500E+03
5.115941842E+00  9.741458984E+03
5.131707456E+00  9.779669922E+03
5.147473070E+00  9.806984375E+03
5.163238685E+00  9.824583984E+03
5.179004299E+00  9.818536133E+03
5.194769913E+00  9.821640625E+03
5.210535528E+00  9.851755859E+03
5.226301142E+00  9.870941406E+03
5.242066756E+00  9.895786133E+03
5.257832371E+00  9.905668945E+03
5.273597985E+00  9.925744141E+03
5.289363599E+00  9.935407227E+03
5.305129213E+00  9.972438477E+03
5.320894828E+00  9.976736328E+03
5.336660442E+00  1.000048535E+04
5.352426056E+00  1.003203223E+04
5.368191671E+00  1.006874023E+04
5.383957285E+00  1.009029004E+04
5.399722899E+00  1.009456348E+04
5.415488514E+00  1.010478516E+04
5.431254128E+00  1.009352832E+04
5.447019742E+00  1.010710449E+04
5.462785356E+00  1.013083496E+04
5.478550971E+00  1.015803711E+04
5.494316585E+00  1.017200195E+04
5.510082199E+00  1.019271094E+04
5.525847814E+00  1.019999023E+04
5.541613428E+00  1.022783105E+04
5.557379042E+00  1.022376758E+04
5.573144657E+00  1.025234766E+04
5.588910271E+00  1.026514551E+04
5.604675885E+00  1.029343457E+04
5.620441499E+00  1.030867383E+04
5.636207114E+00  1.030552637E+04
5.651972728E+00  1.031536914E+04
5.667738342E+00  1.033017578E+04
5.683503957E+00  1.035478418E+04
5.699269571E+00  1.035572949E+04
5.715035185E+00  1.037377637E+04
5.730800800E+00  1.038804004E+04
5.746566414E+00  1.041574902E+04
5.762332028E+00  1.043198535E+04
5.778097642E+00  1.044769629E+04
5.793863257E+00  1.047761426E+04
5.809628871E+00  1.048078027E+04
5.825394485E+00  1.050514258E+04
5.841160100E+00  1.053739160E+04
5.856925714E+00  1.057069336E+04
5.872691328E+00  1.057279492E+04
5.888456943E+00  1.059119141E+04
5.904222557E+00  1.060802148E+04
5.919988171E+00  1.064989551E+04
5.935753785E+00  1.068025098E+04
5.951519400E+00  1.077423242E+04
5.967285014E+00  1.084264648E+04
5.983050628E+00  1.094274512E+04
5.998816243E+00  1.106018652E+04
6.014581857E+00  1.118855566E+04
6.030347471E+00  1.127210449E+04
6.046113086E+00  1.132151660E+04
6.061878700E+00  1.137755566E+04
6.077644314E+00  1.141691895E+04
6.093409928E+00  1.147157520E+04
6.109175543E+00  1.139511621E+04
6.124941157E+00  1.128531348E+04
6.140706771E+00  1.113327539E+04
6.156472386E+00  1.106063184E+04
6.172238000E+00  1.100156836E+04
6.188003614E+00  1.098887891E+04
6.203769229E+00  1.097250391E+04
6.219534843E+00  1.097256543E+04
6.235300457E+00  1.099245508E+04
6.251066072E+00  1.099767773E+04
6.266831686E+00  1.101630273E+04
6.282597300E+00  1.102994727E+04
6.298362914E+00  1.106129102E+04
6.314128529E+00  1.106531250E+04
6.329894143E+00  1.109381836E+04
6.345659757E+00  1.107562109E+04
6.361425372E+00  1.110176953E+04
6.377190986E+00  1.109337305E+04
6.392956600E+00  1.111698145E+04
6.408722215E+00  1.115081348E+04
6.424487829E+00  1.118273730E+04
6.440253443E+00  1.119591211E+04
6.456019057E+00  1.120698926E+04
6.471784672E+00  1.122822656E+04
6.487550286E+00  1.125543359E+04
6.503315900E+00  1.127416211E+04
6.519081515E+00  1.127242969E+04
6.534847129E+00  1.126563965E+04
6.550612743E+00  1.129387598E+04
6.566378358E+00  1.129599219E+04
6.582143972E+00  1.132926074E+04
6.597909586E+00  1.133761816E+04
6.613675200E+00  1.135634082E+04
6.629440815E+00  1.135807715E+04
6.645206429E+00  1.135732031E+04
6.660972043E+00  1.137237891E+04
6.676737658E+00  1.137161230E+04
6.692503272E+00  1.140367188E+04
6.708268886E+00  1.143447461E+04
6.724034501E+00  1.145309766E+04
6.739800115E+00  1.146857715E+04
6.755565729E+00  1.148072363E+04
6.771331343E+00  1.151921582E+04
6.787096958E+00  1.155396094E+04
6.802862572E+00  1.157629102E+04
6.818628186E+00  1.156563672E+04
6.834393801E+00  1.158651758E+04
6.850159415E+00  1.160117090E+04
6.865925029E+00  1.165035938E+04
6.881690644E+00  1.168629590E+04
6.897456258E+00  1.168792480E+04
6.913221872E+00  1.170109180E+04
6.928987486E+00  1.171734473E+04
6.944753101E+00  1.175506543E+04
6.960518715E+00  1.174468555E+04
6.976284329E+00  1.176322363E+04
6.992049944E+00  1.176537305E+04
7.007815558E+00  1.180908789E+04
7.023581172E+00  1.183791797E+04
7.039346787E+00  1.187755664E+04
7.055112401E+00  1.189166113E+04
7.070878015E+00  1.190910840E+04
7.086643629E+00  1.192550684E+04
7.102409244E+00  1.195159961E+04
7.118174858E+00  1.198404883E+04
7.133940472E+00  1.201673340E+04
7.149706087E+00  1.204743555E+04
7.165471701E+00  1.205138477E+04
7.181237315E+00  1.204919043E+04
7.197002930E+00  1.207007324E+04
7.212768544E+00  1.209545410E+04
7.228534158E+00  1.212277930E+04
7.244299773E+00  1.212116602E+04
7.260065387E+00  1.213986719E+04
7.275831001E+00  1.214449219E+04
7.291596615E+00  1.217979199E+04
7.307362230E+00  1.217551660E+04
7.323127844E+00  1.219839648E+04
7.338893458E+00  1.220498438E+04
7.354659073E+00  1.223649609E+04
7.370424687E+00  1.226049121E+04
7.386190301E+00  1.228353320E+04
7.401955916E+00  1.232445898E+04
7.417721530E+00  1.232208008E+04
7.433487144E+00  1.230247070E+04
7.449252758E+00  1.231647852E+04
7.465018373E+00  1.236077832E+04
7.480783987E+00  1.240368262E+04
7.496549601E+00  1.243200000E+04
7.512315216E+00  1.245808105E+04
7.528080830E+00  1.247875391E+04
7.543846444E+00  1.251658691E+04
7.559612059E+00  1.256798047E+04
7.575377673E+00  1.260583887E+04
7.591143287E+00  1.265446094E+04
7.606908901E+00  1.268508789E+04
7.622674516E+00  1.271965234E+04
7.638440130E+00  1.276418262E+04
7.654205744E+00  1.279133105E+04
7.669971359E+00  1.282779785E+04
7.685736973E+00  1.284266797E+04
7.701502587E+00  1.286215039E+04
7.717268202E+00  1.285790332E+04
7.733033816E+00  1.287621289E+04
7.748799430E+00  1.288494141E+04
7.764565044E+00  1.292964746E+04
7.780330659E+00  1.294273633E+04
7.796096273E+00  1.297821875E+04
7.811861887E+00  1.299764941E+04
7.827627502E+00  1.304335645E+04
7.843393116E+00  1.308361035E+04
7.859158730E+00  1.310202930E+04
7.874924345E+00  1.313191016E+04
7.890689959E+00  1.315172559E+04
7.906455573E+00  1.317434082E+04
7.922221187E+00  1.321170801E+04
7.937986802E+00  1.323573340E+04
7.953752416E+00  1.326313086E+04
7.969518030E+00  1.331936133E+04
7.985283645E+00  1.339160547E+04
8.001049259E+00  1.346070410E+04
8.016814873E+00  1.351523047E+04
8.032580488E+00  1.357221582E+04
8.048346102E+00  1.361770703E+04
8.064111716E+00  1.366884082E+04
8.079877330E+00  1.372477051E+04
8.095642945E+00  1.377319531E+04
8.111408559E+00  1.380777930E+04
8.127174173E+00  1.385409180E+04
8.142939788E+00  1.390657129E+04
8.158705402E+00  1.393536426E+04
8.174471016E+00  1.397138965E+04
8.190236631E+00  1.400584277E+04
8.206002245E+00  1.405409766E+04
8.221767859E+00  1.404587402E+04
8.237533474E+00  1.407121582E+04
8.253299088E+00  1.407174609E+04
8.269064702E+00  1.406929297E+04
8.284830316E+00  1.400800098E+04
8.300595931E+00  1.388348828E+04
8.316361545E+00  1.364988672E+04
8.332127159E+00  1.359123730E+04
8.347892774E+00  1.370609863E+04
8.363658388E+00  1.373868652E+04
8.379424002E+00  1.373441406E+04
8.395189617E+00  1.370752734E+04
8.410955231E+00  1.369963770E+04
8.426720845E+00  1.369629883E+04
8.442486459E+00  1.372512500E+04
8.458252074E+00  1.372663477E+04
8.474017688E+00  1.374720703E+04
8.489783302E+00  1.373506250E+04
8.505548917E+00  1.375175098E+04
8.521314531E+00  1.377599316E+04
8.537080145E+00  1.379121973E+04
8.552845760E+00  1.382113672E+04
8.568611374E+00  1.387060742E+04
8.584376988E+00  1.393291895E+04
8.600142602E+00  1.398999023E+04
8.615908217E+00  1.405004395E+04
8.631673831E+00  1.407933301E+04
8.647439445E+00  1.400509082E+04
8.663205060E+00  1.380459375E+04
8.678970674E+00  1.379987793E+04
8.694736288E+00  1.391567969E+04
8.710501903E+00  1.397339648E+04
8.726267517E+00  1.398309375E+04
8.742033131E+00  1.400583984E+04
8.757798745E+00  1.400906445E+04
8.773564360E+00  1.402066309E+04
8.789329974E+00  1.404417480E+04
8.805095588E+00  1.410232129E+04
8.820861203E+00  1.413556738E+04
8.836626817E+00  1.415385547E+04
8.852392431E+00  1.416605371E+04
8.868158046E+00  1.418790625E+04
8.883923660E+00  1.420512402E+04
8.899689274E+00  1.422820312E+04
8.915454888E+00  1.427064062E+04
8.931220503E+00  1.429043945E+04
8.946986117E+00  1.429962695E+04
8.962751731E+00  1.430611426E+04
8.978517346E+00  1.429981055E+04
8.994282960E+00  1.428559570E+04
9.010048574E+00  1.427345117E+04
9.025814189E+00  1.428760352E+04
9.041579803E+00  1.427755469E+04
9.057345417E+00  1.429047168E+04
9.073111031E+00  1.428202441E+04
9.088876646E+00  1.431444727E+04
9.104642260E+00  1.431717285E+04
9.120407874E+00  1.435909473E+04
9.136173489E+00  1.436603027E+04
9.151939103E+00  1.437754297E+04
9.167704717E+00  1.436230762E+04
9.183470332E+00  1.437781250E+04
9.199235946E+00  1.439527637E+04
9.215001560E+00  1.442404102E+04
9.230767175E+00  1.444374805E+04
9.246532789E+00  1.447263770E+04
9.262298403E+00  1.448958496E+04
9.278064017E+00  1.449442480E+04
9.293829632E+00  1.451056250E+04
9.309595246E+00  1.452170996E+04
9.325360860E+00  1.453702441E+04
9.341126475E+00  1.452453516E+04
9.356892089E+00  1.453991895E+04
9.372657703E+00  1.451880078E+04
9.388423318E+00  1.452321387E+04
9.404188932E+00  1.451914746E+04
9.419954546E+00  1.453270898E+04
9.435720160E+00  1.455073438E+04
9.451485775E+00  1.459121191E+04
9.467251389E+00  1.462386816E+04
9.483017003E+00  1.465167871E+04
9.498782618E+00  1.466405371E+04
9.514548232E+00  1.467152832E+04
9.530313846E+00  1.469641504E+04
9.546079461E+00  1.472178613E+04
9.561845075E+00  1.474828613E+04
9.577610689E+00  1.477113867E+04
9.593376303E+00  1.479911133E+04
9.609141918E+00  1.482704297E+04
9.624907532E+00  1.483542676E+04
9.640673146E+00  1.483735938E+04
9.656438761E+00  1.484751953E+04
9.672204375E+00  1.487455176E+04
9.687969989E+00  1.490206934E+04
9.703735604E+00  1.493929883E+04
9.719501218E+00  1.496763477E+04
9.735266832E+00  1.502059277E+04
9.751032446E+00  1.506981348E+04
9.766798061E+00  1.513427441E+04
9.782563675E+00  1.517374023E+04
9.798329289E+00  1.521615625E+04
9.814094904E+00  1.527282422E+04
9.829860518E+00  1.534883105E+04
9.845626132E+00  1.539687793E+04
9.861391747E+00  1.542810449E+04
9.877157361E+00  1.544616895E+04
9.892922975E+00  1.545750684E+04
9.908688589E+00  1.546924512E+04
9.924454204E+00  1.550865332E+04
9.940219818E+00  1.555501172E+04
9.955985432E+00  1.564082129E+04
9.971751047E+00  1.575174414E+04
9.987516661E+00  1.586980078E+04
1.000328228E+01  1.603290137E+04
1.001904789E+01  1.619584082E+04
1.003481350E+01  1.635181738E+04
1.005057912E+01  1.650470703E+04
1.006634473E+01  1.664202344E+04
1.008211035E+01  1.676216602E+04
1.009787596E+01  1.682974805E+04
1.011364158E+01  1.682385352E+04
1.012940719E+01  1.675579102E+04
1.014517280E+01  1.655447266E+04
1.016093842E+01  1.624099414E+04
1.017670403E+01  1.594053320E+04
1.019246965E+01  1.571001367E+04
1.020823526E+01  1.551979395E+04
1.022400088E+01  1.535103809E+04
1.023976649E+01  1.520173926E+04
1.025553210E+01  1.507314258E+04
1.027129772E+01  1.497316602E+04
1.028706333E+01  1.492658398E+04
1.030282895E+01  1.487565137E+04
1.031859456E+01  1.485051660E+04
1.033436018E+01  1.480454297E+04
1.035012579E+01  1.478856836E+04
1.036589140E+01  1.474811230E+04
1.038165702E+01  1.474916309E+04
1.039742263E+01  1.473552539E+04
1.041318825E+01  1.474043164E+04
1.042895386E+01  1.469178613E+04
1.044471948E+01  1.466980371E+04
1.046048509E+01  1.460568164E+04
1.047625070E+01  1.460253809E+04
1.049201632E+01  1.455119238E+04
1.050778193E+01  1.456895605E+04
1.052354755E+01  1.453565723E+04
1.053931316E+01  1.453803711E+04
1.055507878E+01  1.447510254E+04
1.057084439E+01  1.445727930E+04
1.058661000E+01  1.442241797E+04
1.060237562E+01  1.444417188E+04
1.061814123E+01  1.444240527E+04
1.063390685E+01  1.442304004E+04
1.064967246E+01  1.439106641E+04
1.066543808E+01  1.437268066E+04
1.068120369E+01  1.436311035E+04
1.069696930E+01  1.435381543E+04
1.071273492E+01  1.436321875E+04
1.072850053E+01  1.453474219E+04
1.074426615E+01  1.463822168E+04
1.076003176E+01  1.473758398E+04
1.077579738E+01  1.477915918E+04
1.079156299E+01  1.483931250E+04
1.080732860E+01  1.487767285E+04
1.082309422E+01  1.495106445E+04
1.083885983E+01  1.501632422E+04
1.085462545E+01  1.506722266E+04
1.087039106E+01  1.510311719E+04
1.088615668E+01  1.515630371E+04
1.090192229E+01  1.519342578E+04
1.091768790E+01  1.522835645E+04
1.093345352E+01  1.526908203E+04
1.094921913E+01  1.530650684E+04
1.096498475E+01  1.533292578E+04
1.098075036E+01  1.537291602E+04
1.099651598E+01  1.542030762E+04
1.101228159E+01  1.545603418E+04
1.102804720E+01  1.547289746E+04
1.104381282E+01  1.538429102E+04
1.105957843E+01  1.524979688E+04
1.107534405E+01  1.518816309E+04
1.109110966E+01  1.512341016E+04
1.110687528E+01  1.507094043E+04
1.112264089E+01  1.502140820E+04
1.113840650E+01  1.501128906E+04
1.115417212E+01  1.498523828E+04
1.116993773E+01  1.495900098E+04
1.118570335E+01  1.490050977E+04
1.120146896E+01  1.487972070E+04
1.121723458E+01  1.483907227E+04
1.123300019E+01  1.483722266E+04
1.124876581E+01  1.477937402E+04
1.126453142E+01  1.477152148E+04
1.128029703E+01  1.472437109E+04
1.129606265E+01  1.473395020E+04
1.131182826E+01  1.471053223E+04
1.132759388E+01  1.473501465E+04
1.134335949E+01  1.472007031E+04
1.135912511E+01  1.474767480E+04
1.137489072E+01  1.477183984E+04
1.139065633E+01  1.482947656E+04
1.140642195E+01  1.492755371E+04
1.142218756E+01  1.514177441E+04
1.143795318E+01  1.553022461E+04
1.145371879E+01  1.595236621E+04
1.146948441E+01  1.623252051E+04
1.148525002E+01  1.619688477E+04
1.150101563E+01  1.590370996E+04
1.151678125E+01  1.552726855E+04
1.153254686E+01  1.522035059E+04
1.154831248E+01  1.500167285E+04
1.156407809E+01  1.487944824E+04
1.157984371E+01  1.476686035E+04
1.159560932E+01  1.467776660E+04
1.161137493E+01  1.472628027E+04
1.162714055E+01  1.484280078E+04
1.164290616E+01  1.492021582E+04
1.165867178E+01  1.497436328E+04
1.167443739E+01  1.503208105E+04
1.169020301E+01  1.507855859E+04
1.170596862E+01  1.512483496E+04
1.172173423E+01  1.516062891E+04
1.173749985E+01  1.518037598E+04
1.175326546E+01  1.519124023E+04
1.176903108E+01  1.521953418E+04
1.178479669E+01  1.523773535E+04
1.180056231E+01  1.526777148E+04
1.181632792E+01  1.530279395E+04
1.183209353E+01  1.533401953E+04
1.184785915E+01  1.537028711E+04
1.186362476E+01  1.540941113E+04
1.187939038E+01  1.544810352E+04
1.189515599E+01  1.549136914E+04
1.191092161E+01  1.550142090E+04
1.192668722E+01  1.553347461E+04
1.194245283E+01  1.557128906E+04
1.195821845E+01  1.560568457E+04
1.197398406E+01  1.563351465E+04
1.198974968E+01  1.570774023E+04
1.200551529E+01  1.575520410E+04
1.202128091E+01  1.579342285E+04
1.203704652E+01  1.584173340E+04
1.205281213E+01  1.589654492E+04
1.206857775E+01  1.595387891E+04
1.208434336E+01  1.600154102E+04
1.210010898E+01  1.605938184E+04
1.211587459E+01  1.611739062E+04
1.213164021E+01  1.617476172E+04
1.214740582E+01  1.620811035E+04
1.216317143E+01  1.621856738E+04
1.217893705E+01  1.622046387E+04
1.219470266E+01  1.620722852E+04
1.221046828E+01  1.617052344E+04
1.222623389E+01  1.612681250E+04
1.224199951E+01  1.608251074E+04
1.225776512E+01  1.604863770E+04
1.227353073E+01  1.603117871E+04
1.228929635E+01  1.602023145E+04
1.230506196E+01  1.602974609E+04
1.232082758E+01  1.602572461E+04
1.233659319E+01  1.602718457E+04
1.235235881E+01  1.602160840E+04
1.236812442E+01  1.603924902E+04
1.238389003E+01  1.604834863E+04
1.239965565E+01  1.607303418E+04
1.241542126E+01  1.610183496E+04
1.243118688E+01  1.611773926E+04
1.244695249E+01  1.613328809E+04
1.246271811E+01  1.614881641E+04
1.247848372E+01  1.616856836E+04
1.249424933E+01  1.617870215E+04
1.251001495E+01  1.621532324E+04
1.252578056E+01  1.624125000E+04
1.254154618E+01  1.626620410E+04
1.255731179E+01  1.626407910E+04
1.257307741E+01  1.627259375E+04
1.258884302E+01  1.629811133E+04
1.260460864E+01  1.631791016E+04
1.262037425E+01  1.632742871E+04
1.263613986E+01  1.632606250E+04
1.265190548E+01  1.632681250E+04
1.266767109E+01  1.634019434E+04
1.268343671E+01  1.635512500E+04
1.269920232E+01  1.636637695E+04
1.271496794E+01  1.636497168E+04
1.273073355E+01  1.637379199E+04
1.274649916E+01  1.638640820E+04
1.276226478E+01  1.642169141E+04
1.277803039E+01  1.645362109E+04
1.279379601E+01  1.646278320E+04
1.280956162E+01  1.644627344E+04
1.282532724E+01  1.646270508E+04
1.284109285E+01  1.647272656E+04
1.285685846E+01  1.648207227E+04
1.287262408E+01  1.647861328E+04
1.288838969E+01  1.648416406E+04
1.290415531E+01  1.649535938E+04
1.291992092E+01  1.651238867E+04
1.293568654E+01  1.651451758E+04
1.295145215E+01  1.654634375E+04
1.296721776E+01  1.655404102E+04
1.298298338E+01  1.657575000E+04
1.299874899E+01  1.658806250E+04
1.301451461E+01  1.662691602E+04
1.303028022E+01  1.665492773E+04
1.304604584E+01  1.670351562E+04
1.306181145E+01  1.675229492E+04
1.307757706E+01  1.679891797E+04
1.309334268E+01  1.682951367E+04
1.310910829E+01  1.687719727E+04
1.312487391E+01  1.693924023E+04
1.314063952E+01  1.699313086E+04
1.315640514E+01  1.704415234E+04
1.317217075E+01  1.710536914E+04
1.318793636E+01  1.715570508E+04
1.320370198E+01  1.721415820E+04
1.321946759E+01  1.728219727E+04
1.323523321E+01  1.736040625E+04
1.325099882E+01  1.740269727E+04
1.326676444E+01  1.743086133E+04
1.328253005E+01  1.741264258E+04
1.329829566E+01  1.738525195E+04
1.331406128E+01  1.731852734E+04
1.332982689E+01  1.725655664E+04
1.334559251E+01  1.715939062E+04
1.336135812E+01  1.707334570E+04
1.337712374E+01  1.701331250E+04
1.339288935E+01  1.696940430E+04
1.340865496E+01  1.693225586E+04
1.342442058E+01  1.689185938E+04
1.344018619E+01  1.686202539E+04
1.345595181E+01  1.688673242E+04
1.347171742E+01  1.690447656E+04
1.348748304E+01  1.693779297E+04
1.350324865E+01  1.692083594E+04
1.351901426E+01  1.691075586E+04
1.353477988E+01  1.693422656E+04
1.355054549E+01  1.696001953E+04
1.356631111E+01  1.694459375E+04
1.358207672E+01  1.695392773E+04
1.359784234E+01  1.694434961E+04
1.361360795E+01  1.696174414E+04
1.362937356E+01  1.696313672E+04
1.364513918E+01  1.697396680E+04
1.366090479E+01  1.698666602E+04
1.367667041E+01  1.700540234E+04
1.369243602E+01  1.701218359E+04
1.370820164E+01  1.698908594E+04
1.372396725E+01  1.696698633E+04
1.373973286E+01  1.696352734E+04
1.375549848E+01  1.697674609E+04
1.377126409E+01  1.695356641E+04
1.378702971E+01  1.691353906E+04
1.380279532E+01  1.689508008E+04
1.381856094E+01  1.689711719E+04
1.383432655E+01  1.691874805E+04
1.385009216E+01  1.691299023E+04
1.386585778E+01  1.689526758E+04
1.388162339E+01  1.688002344E+04
1.389738901E+01  1.688794141E+04
1.391315462E+01  1.689357617E+04
1.392892024E+01  1.688637695E+04
1.394468585E+01  1.687566016E+04
1.396045146E+01  1.689062891E+04
1.397621708E+01  1.690829883E+04
1.399198269E+01  1.689879492E+04
1.400774831E+01  1.688096484E+04
1.402351392E+01  1.685177344E+04
1.403927954E+01  1.683457617E+04
1.405504515E+01  1.683065039E+04
1.407081077E+01  1.684004688E+04
1.408657638E+01  1.684413086E+04
1.410234199E+01  1.684243555E+04
1.411810761E+01  1.683940234E+04
1.413387322E+01  1.682872266E+04
1.414963884E+01  1.683291797E+04
1.416540445E+01  1.683080469E+04
1.418117007E+01  1.683965234E+04
1.419693568E+01  1.683914648E+04
1.421270129E+01  1.684776172E+04
1.422846691E+01  1.683150977E+04
1.424423252E+01  1.684195898E+04
1.425999814E+01  1.684576562E+04
1.427576375E+01  1.685097656E+04
1.429152937E+01  1.683696680E+04
1.430729498E+01  1.683929492E+04
1.432306059E+01  1.684807812E+04
1.433882621E+01  1.683988086E+04
1.435459182E+01  1.682692969E+04
1.437035744E+01  1.682584180E+04
1.438612305E+01  1.683411914E+04
1.440188867E+01  1.685327930E+04
1.441765428E+01  1.686357422E+04
1.443341989E+01  1.686265820E+04
1.444918551E+01  1.684635352E+04
1.446495112E+01  1.685575586E+04
1.448071674E+01  1.686720508E+04
1.449648235E+01  1.687427734E+04
1.451224797E+01  1.688832812E+04
1.452801358E+01  1.691629102E+04
1.454377919E+01  1.692658594E+04
1.455954481E+01  1.692756836E+04
1.457531042E+01  1.690842578E+04
1.459107604E+01  1.693936133E+04
1.460684165E+01  1.694587109E+04
1.462260727E+01  1.695449023E+04
1.463837288E+01  1.695248438E+04
1.465413849E+01  1.695207422E+04
1.466990411E+01  1.694607617E+04
1.468566972E+01  1.696473047E+04
1.470143534E+01  1.698859375E+04
1.471720095E+01  1.700595117E+04
1.473296657E+01  1.699431055E+04
1.474873218E+01  1.699744727E+04
1.476449779E+01  1.698832422E+04
1.478026341E+01  1.702598633E+04
1.479602902E+01  1.704022266E+04
1.481179464E+01  1.707152539E+04
1.482756025E+01  1.707132227E+04
1.484332587E+01  1.707808203E+04
1.485909148E+01  1.708057227E+04
1.487485709E+01  1.707879883E+04
1.489062271E+01  1.705934961E+04
1.490638832E+01  1.709538086E+04
1.492215394E+01  1.711772461E+04
1.493791955E+01  1.716113867E+04
1.495368517E+01  1.716618164E+04
1.496945078E+01  1.720019531E+04
1.498521639E+01  1.720145508E+04
1.500098201E+01  1.723047266E+04
1.501674762E+01  1.723480859E+04
1.503251324E+01  1.725628320E+04
1.504827885E+01  1.726281641E+04
1.506404447E+01  1.724652734E+04
1.507981008E+01  1.723720898E+04
1.509557569E+01  1.722965234E+04
1.511134131E+01  1.720229102E+04
1.512710692E+01  1.718435742E+04
1.514287254E+01  1.713223633E+04
1.515863815E+01  1.712967383E+04
1.517440377E+01  1.708928516E+04
1.519016938E+01  1.708111914E+04
1.520593499E+01  1.705369336E+04
1.522170061E+01  1.702043750E+04
1.523746622E+01  1.694692578E+04
1.525323184E+01  1.690660547E+04
1.526899745E+01  1.685327148E+04
1.528476307E+01  1.683413281E+04
1.530052868E+01  1.680283008E+04
1.531629429E+01  1.678304102E+04
1.533205991E+01  1.671940039E+04
1.534782552E+01  1.669640039E+04
1.536359114E+01  1.664904492E+04
1.537935675E+01  1.663972656E+04
1.539512237E+01  1.660004688E+04
1.541088798E+01  1.660123047E+04
1.542665360E+01  1.657244531E+04
1.544241921E+01  1.655433984E+04
1.545818482E+01  1.651382422E+04
1.547395044E+01  1.651392578E+04
1.548971605E+01  1.647966406E+04
1.550548167E+01  1.646756836E+04
1.552124728E+01  1.643500391E+04
1.553701290E+01  1.643336328E+04
1.555277851E+01  1.642008203E+04
1.556854412E+01  1.642770703E+04
1.558430974E+01  1.640816211E+04
1.560007535E+01  1.639292383E+04
1.561584097E+01  1.637821289E+04
1.563160658E+01  1.636847266E+04
1.564737220E+01  1.635991602E+04
1.566313781E+01  1.635573242E+04
1.567890342E+01  1.632599805E+04
1.569466904E+01  1.631768652E+04
1.571043465E+01  1.628341016E+04
1.572620027E+01  1.626743750E+04
1.574196588E+01  1.625956738E+04
1.575773150E+01  1.626925098E+04
1.577349711E+01  1.627065332E+04
1.578926272E+01  1.626148145E+04
1.580502834E+01  1.623431543E+04
1.582079395E+01  1.620826270E+04
1.583655957E+01  1.620687988E+04
1.585232518E+01  1.619830762E+04
1.586809080E+01  1.621090039E+04
1.588385641E+01  1.619474023E+04
1.589962202E+01  1.616745312E+04
1.591538764E+01  1.616142969E+04
1.593115325E+01  1.615233301E+04
1.594691887E+01  1.614654492E+04
1.596268448E+01  1.615001270E+04
1.597845010E+01  1.611698145E+04
1.599421571E+01  1.608132422E+04
1.600998132E+01  1.606209082E+04
1.602574694E+01  1.605641211E+04
1.604151255E+01  1.606835742E+04
1.605727817E+01  1.606409180E+04
1.607304378E+01  1.605464160E+04
1.608880940E+01  1.605082129E+04
1.610457501E+01  1.602676562E+04
1.612034062E+01  1.601140039E+04
1.613610624E+01  1.599750879E+04
1.615187185E+01  1.600691895E+04
1.616763747E+01  1.598742578E+04
1.618340308E+01  1.597697363E+04
1.619916870E+01  1.596408789E+04
1.621493431E+01  1.594274023E+04
1.623069992E+01  1.591066211E+04
1.624646554E+01  1.590071094E+04
1.626223115E+01  1.590223047E+04
1.627799677E+01  1.587976562E+04
1.629376238E+01  1.586664160E+04
1.630952800E+01  1.587386328E+04
1.632529361E+01  1.586043848E+04
1.634105922E+01  1.583197949E+04
1.635682484E+01  1.583599805E+04
1.637259045E+01  1.585630469E+04
1.638835607E+01  1.585949609E+04
1.640412168E+01  1.583284961E+04
1.641988730E+01  1.581896875E+04
1.643565291E+01  1.579992383E+04
1.645141852E+01  1.579382812E+04
1.646718414E+01  1.579948438E+04
1.648294975E+01  1.580018750E+04
1.649871537E+01  1.578784473E+04
1.651448098E+01  1.579006152E+04
1.653024660E+01  1.576005371E+04
1.654601221E+01  1.575960938E+04
1.656177782E+01  1.576761523E+04
1.657754344E+01  1.577100879E+04
1.659330905E+01  1.575635254E+04
1.660907467E+01  1.573831641E+04
1.662484028E+01  1.572144824E+04
1.664060590E+01  1.570921875E+04
1.665637151E+01  1.569717383E+04
1.667213712E+01  1.571703809E+04
1.668790274E+01  1.571537891E+04
1.670366835E+01  1.571115137E+04
1.671943397E+01  1.568638867E+04
1.673519958E+01  1.567120703E+04
1.675096520E+01  1.565361523E+04
1.676673081E+01  1.564419336E+04
1.678249642E+01  1.561366797E+04
1.679826204E+01  1.561936621E+04
1.681402765E+01  1.561777051E+04
1.682979327E+01  1.559905957E+04
1.684555888E+01  1.558042773E+04
1.686132450E+01  1.559420703E+04
1.687709011E+01  1.558938086E+04
1.689285573E+01  1.557214258E+04
1.690862134E+01  1.556958301E+04
1.692438695E+01  1.558113672E+04
1.694015257E+01  1.558323633E+04
1.695591818E+01  1.558891699E+04
1.697168380E+01  1.559841797E+04
1.698744941E+01  1.559409375E+04
1.700321503E+01  1.557851855E+04
1.701898064E+01  1.557485254E+04
1.703474625E+01  1.554915820E+04
1.705051187E+01  1.550909473E+04
1.706627748E+01  1.548675781E+04
1.708204310E+01  1.553574805E+04
1.709780871E+01  1.554548145E+04
1.711357433E+01  1.554954785E+04
1.712933994E+01  1.554365918E+04
1.714510555E+01  1.554581152E+04
1.716087117E+01  1.556370508E+04
1.717663678E+01  1.555998633E+04
1.719240240E+01  1.555469922E+04
1.720816801E+01  1.553437402E+04
1.722393363E+01  1.550824023E+04
1.723969924E+01  1.551302344E+04
1.725546485E+01  1.552288965E+04
1.727123047E+01  1.551435742E+04
1.728699608E+01  1.549336621E+04
1.730276170E+01  1.546417969E+04
1.731852731E+01  1.545580273E+04
1.733429293E+01  1.545751758E+04
1.735005854E+01  1.541633594E+04
1.736582415E+01  1.539977441E+04
1.738158977E+01  1.537331836E+04
1.739735538E+01  1.535247949E+04
1.741312100E+01  1.534800781E+04
1.742888661E+01  1.533573242E+04
1.744465223E+01  1.531916895E+04
1.746041784E+01  1.529658691E+04
1.747618345E+01  1.529537891E+04
1.749194907E+01  1.529111426E+04
1.750771468E+01  1.527120117E+04
1.752348030E+01  1.524794043E+04
1.753924591E+01  1.523748633E+04
1.755501153E+01  1.523620801E+04
1.757077714E+01  1.521600977E+04
1.758654275E+01  1.520087988E+04
1.760230837E+01  1.517460059E+04
1.761807398E+01  1.516542969E+04
1.763383960E+01  1.515178613E+04
1.764960521E+01  1.513765430E+04
1.766537083E+01  1.512329395E+04
1.768113644E+01  1.510211230E+04
1.769690205E+01  1.507734766E+04
1.771266767E+01  1.505251465E+04
1.772843328E+01  1.503518359E+04
1.774419890E+01  1.502912500E+04
1.775996451E+01  1.503353223E+04
1.777573013E+01  1.502388867E+04
1.779149574E+01  1.500264551E+04
1.780726135E+01  1.499177441E+04
1.782302697E+01  1.495597852E+04
1.783879258E+01  1.492543652E+04
1.785455820E+01  1.491337305E+04
1.787032381E+01  1.490099414E+04
1.788608943E+01  1.489915723E+04
1.790185504E+01  1.487839844E+04
1.791762065E+01  1.490698633E+04
1.793338627E+01  1.489718945E+04
1.794915188E+01  1.487697559E+04
1.796491750E+01  1.483834570E+04
1.798068311E+01  1.480300488E+04
1.799644873E+01  1.478237891E+04
1.801221434E+01  1.478089355E+04
1.802797995E+01  1.477366309E+04
1.804374557E+01  1.477658398E+04
1.805951118E+01  1.475763086E+04
1.807527680E+01  1.472477930E+04
1.809104241E+01  1.469534180E+04
1.810680803E+01  1.468412109E+04
1.812257364E+01  1.468949805E+04
1.813833925E+01  1.466329395E+04
1.815410487E+01  1.465130957E+04
1.816987048E+01  1.464390430E+04
1.818563610E+01  1.462668262E+04
1.820140171E+01  1.460872168E+04
1.821716733E+01  1.458083008E+04
1.823293294E+01  1.455190234E+04
1.824869856E+01  1.454333301E+04
1.826446417E+01  1.452698926E+04
1.828022978E+01  1.453764844E+04
1.829599540E+01  1.453573730E+04
1.831176101E+01  1.451860352E+04
1.832752663E+01  1.449716211E+04
1.834329224E+01  1.446671191E+04
1.835905786E+01  1.444322070E+04
1.837482347E+01  1.443573828E+04
1.839058908E+01  1.442873438E+04
1.840635470E+01  1.442952441E+04
1.842212031E+01  1.439337793E+04
1.843788593E+01  1.438755273E+04
1.845365154E+01  1.438482715E+04
1.846941716E+01  1.437525098E+04
1.848518277E+01  1.437315234E+04
1.850094838E+01  1.435750391E+04
1.851671400E+01  1.433954004E+04
1.853247961E+01  1.430766016E+04
1.854824523E+01  1.426251855E+04
1.856401084E+01  1.424933008E+04
1.857977646E+01  1.422771289E+04
1.859554207E+01  1.420946191E+04
1.861130768E+01  1.420802930E+04
1.862707330E+01  1.417418359E+04
1.864283891E+01  1.416629883E+04
1.865860453E+01  1.416125586E+04
1.867437014E+01  1.415041113E+04
1.869013576E+01  1.413319336E+04
1.870590137E+01  1.411499219E+04
1.872166698E+01  1.409507031E+04
1.873743260E+01  1.409108984E+04
1.875319821E+01  1.407974512E+04
1.876896383E+01  1.406082129E+04
1.878472944E+01  1.403593750E+04
1.880049506E+01  1.398636035E+04
1.881626067E+01  1.399175195E+04
1.883202628E+01  1.398892480E+04
1.884779190E+01  1.397586328E+04
1.886355751E+01  1.397975000E+04
1.887932313E+01  1.397208398E+04
1.889508874E+01  1.396478125E+04
1.891085436E+01  1.393422559E+04
1.892661997E+01  1.391905469E+04
1.894238558E+01  1.389414160E+04
1.895815120E+01  1.389430469E+04
1.897391681E+01  1.387165430E+04
1.898968243E+01  1.386014941E+04
1.900544804E+01  1.383714355E+04
1.902121366E+01  1.383090430E+04
1.903697927E+01  1.384074902E+04
1.905274488E+01  1.381796484E+04
1.906851050E+01  1.381685547E+04
1.908427611E+01  1.380808887E+04
1.910004173E+01  1.382607422E+04
1.911580734E+01  1.382182520E+04
1.913157296E+01  1.380862695E+04
1.914733857E+01  1.382157910E+04
1.916310418E+01  1.379880859E+04
1.917886980E+01  1.380552930E+04
1.919463541E+01  1.380916016E+04
1.921040103E+01  1.381383691E+04
1.922616664E+01  1.381379395E+04
1.924193226E+01  1.380429590E+04
1.925769787E+01  1.383667285E+04
1.927346348E+01  1.382846777E+04
1.928922910E+01  1.382301660E+04
1.930499471E+01  1.381682129E+04
1.932076033E+01  1.381464844E+04
1.933652594E+01  1.381043945E+04
1.935229156E+01  1.380330273E+04
1.936805717E+01  1.379813770E+04
1.938382278E+01  1.378578613E+04
1.939958840E+01  1.379273047E+04
1.941535401E+01  1.378821484E+04
1.943111963E+01  1.379883301E+04
1.944688524E+01  1.380309570E+04
1.946265086E+01  1.383547949E+04
1.947841647E+01  1.386756152E+04
1.949418208E+01  1.385392090E+04
1.950994770E+01  1.385649316E+04
1.952571331E+01  1.387035742E+04
1.954147893E+01  1.389001855E+04
1.955724454E+01  1.389846484E+04
1.957301016E+01  1.387344531E+04
1.958877577E+01  1.386764648E+04
1.960454138E+01  1.386670508E+04
1.962030700E+01  1.387651465E+04
1.963607261E+01  1.387984180E+04
1.965183823E+01  1.386466504E+04
1.966760384E+01  1.386410645E+04
1.968336946E+01  1.387160938E+04
1.969913507E+01  1.386217383E+04
1.971490069E+01  1.386470996E+04
1.973066630E+01  1.388072461E+04
1.974643191E+01  1.390354102E+04
1.976219753E+01  1.391486230E+04
1.977796314E+01  1.394820020E+04
1.979372876E+01  1.395454590E+04
1.980949437E+01  1.395214844E+04
1.982525999E+01  1.395724805E+04
1.984102560E+01  1.397620898E+04
1.985679121E+01  1.398444531E+04
1.987255683E+01  1.397124023E+04
1.988832244E+01  1.397825098E+04
1.990408806E+01  1.397960840E+04
1.991985367E+01  1.399388770E+04
1.993561929E+01  1.399137891E+04
1.995138490E+01  1.398789062E+04
1.996715051E+01  1.396896387E+04
1.998291613E+01  1.396879785E+04
1.999868174E+01  1.395116699E+04
2.001444736E+01  1.394641602E+04
2.003021297E+01  1.392298828E+04
2.004597859E+01  1.392497656E+04
2.006174420E+01  1.391314648E+04
2.007750981E+01  1.391974902E+04
2.009327543E+01  1.388741992E+04
2.010904104E+01  1.386463574E+04
2.012480666E+01  1.384450293E+04
2.014057227E+01  1.384781250E+04
2.015633789E+01  1.383739941E+04
2.017210350E+01  1.383077051E+04
2.018786911E+01  1.380397168E+04
2.020363473E+01  1.377757520E+04
2.021940034E+01  1.376058887E+04
2.023516596E+01  1.376597461E+04
2.025093157E+01  1.376629492E+04
2.026669719E+01  1.376035645E+04
2.028246280E+01  1.372963770E+04
2.029822841E+01  1.369917969E+04
2.031399403E+01  1.366775977E+04
2.032975964E+01  1.363444336E+04
2.034552526E+01  1.362311426E+04
2.036129087E+01  1.362823242E+04
2.037705649E+01  1.362932031E+04
2.039282210E+01  1.363004102E+04
2.040858771E+01  1.362025879E+04
2.042435333E+01  1.360454883E+04
2.044011894E+01  1.359702832E+04
2.045588456E+01  1.359942773E+04
2.047165017E+01  1.358168066E+04
2.048741579E+01  1.357074414E+04
2.050318140E+01  1.356801953E+04
2.051894701E+01  1.356915039E+04
2.053471263E+01  1.356541895E+04
2.055047824E+01  1.355517480E+04
2.056624386E+01  1.353753809E+04
2.058200947E+01  1.352691309E+04
2.059777509E+01  1.351919043E+04
2.061354070E+01  1.351038574E+04
2.062930631E+01  1.349249512E+04
2.064507193E+01  1.347386230E+04
2.066083754E+01  1.343729590E+04
2.067660316E+01  1.342494238E+04
2.069236877E+01  1.342228027E+04
2.070813439E+01  1.342932227E+04
2.072390000E+01  1.342455273E+04
2.073966561E+01  1.342463281E+04
2.075543123E+01  1.342700391E+04
2.077119684E+01  1.341127734E+04
2.078696246E+01  1.340502734E+04
2.080272807E+01  1.337526270E+04
2.081849369E+01  1.334947559E+04
2.083425930E+01  1.333519531E+04
2.085002491E+01  1.333467188E+04
2.086579053E+01  1.334009961E+04
2.088155614E+01  1.333095020E+04
2.089732176E+01  1.330204102E+04
2.091308737E+01  1.328909375E+04
2.092885299E+01  1.329898047E+04
2.094461860E+01  1.329696680E+04
2.096038421E+01  1.326466113E+04
2.097614983E+01  1.324641113E+04
2.099191544E+01  1.325094238E+04
2.100768106E+01  1.323469727E+04
2.102344667E+01  1.322768164E+04
2.103921229E+01  1.321513965E+04
2.105497790E+01  1.320870020E+04
2.107074351E+01  1.318629297E+04
2.108650913E+01  1.319274316E+04
2.110227474E+01  1.317687402E+04
2.111804036E+01  1.318485449E+04
2.113380597E+01  1.317484570E+04
2.114957159E+01  1.315536621E+04
2.116533720E+01  1.312635645E+04
2.118110282E+01  1.311827930E+04
2.119686843E+01  1.310371289E+04
2.121263404E+01  1.310538672E+04
2.122839966E+01  1.312503711E+04
2.124416527E+01  1.311668750E+04
2.125993089E+01  1.309081641E+04
2.127569650E+01  1.305863379E+04
2.129146212E+01  1.304737891E+04
2.130722773E+01  1.303959180E+04
2.132299334E+01  1.303394727E+04
2.133875896E+01  1.304428223E+04
2.135452457E+01  1.304091016E+04
2.137029019E+01  1.304318066E+04
2.138605580E+01  1.303993164E+04
2.140182142E+01  1.301115137E+04
2.141758703E+01  1.297456445E+04
2.143335264E+01  1.292814355E+04
2.144911826E+01  1.294083594E+04
2.146488387E+01  1.295486426E+04
2.148064949E+01  1.292440430E+04
2.149641510E+01  1.287096680E+04
2.151218072E+01  1.282659375E+04
2.152794633E+01  1.284779980E+04
2.154371194E+01  1.289433496E+04
2.155947756E+01  1.289665723E+04
2.157524317E+01  1.290542285E+04
2.159100879E+01  1.289537109E+04
2.160677440E+01  1.288629688E+04
2.162254002E+01  1.285691602E+04
2.163830563E+01  1.285931348E+04
2.165407124E+01  1.286951953E+04
2.166983686E+01  1.286981445E+04
2.168560247E+01  1.286605371E+04
2.170136809E+01  1.283596582E+04
2.171713370E+01  1.281644043E+04
2.173289932E+01  1.281790039E+04
2.174866493E+01  1.282562207E+04
2.176443054E+01  1.280893359E+04
2.178019616E+01  1.278354590E+04
2.179596177E+01  1.275273242E+04
2.181172739E+01  1.273572559E+04
2.182749300E+01  1.271089160E+04
2.184325862E+01  1.272477148E+04
2.185902423E+01  1.274558789E+04
2.187478984E+01  1.276688574E+04
2.189055546E+01  1.274170898E+04
2.190632107E+01  1.272731152E+04
2.192208669E+01  1.271775781E+04
2.193785230E+01  1.268972070E+04
2.195361792E+01  1.267647754E+04
2.196938353E+01  1.266036719E+04
2.198514914E+01  1.265603906E+04
2.200091476E+01  1.261810938E+04
2.201668037E+01  1.261593262E+04
2.203244599E+01  1.262032129E+04
2.204821160E+01  1.261214844E+04
2.206397722E+01  1.260931250E+04
2.207974283E+01  1.259985840E+04
2.209550844E+01  1.260313086E+04
2.211127406E+01  1.258771094E+04
2.212703967E+01  1.257494824E+04
2.214280529E+01  1.253809961E+04
2.215857090E+01  1.253452051E+04
2.217433652E+01  1.257645410E+04
2.219010213E+01  1.260853418E+04
2.220586774E+01  1.253815625E+04
2.222163336E+01  1.247217090E+04
2.223739897E+01  1.245113770E+04
2.225316459E+01  1.244253516E+04
2.226893020E+01  1.244136914E+04
2.228469582E+01  1.243345117E+04
2.230046143E+01  1.245038477E+04
2.231622704E+01  1.244154980E+04
2.233199266E+01  1.244761816E+04
2.234775827E+01  1.244523145E+04
2.236352389E+01  1.242609375E+04
2.237928950E+01  1.239003320E+04
2.239505512E+01  1.241067383E+04
2.241082073E+01  1.241183105E+04
2.242658634E+01  1.242133496E+04
2.244235196E+01  1.242057422E+04
2.245811757E+01  1.239475977E+04
2.247388319E+01  1.233443750E+04
2.248964880E+01  1.229817578E+04
2.250541442E+01  1.228111621E+04
2.252118003E+01  1.228460645E+04
2.253694565E+01  1.228970117E+04
2.255271126E+01  1.227829492E+04
2.256847687E+01  1.225537598E+04
2.258424249E+01  1.225625488E+04
2.260000810E+01  1.226971484E+04
2.261577372E+01  1.225615723E+04
2.263153933E+01  1.223661816E+04
2.264730495E+01  1.224375098E+04
2.266307056E+01  1.223909668E+04
2.267883617E+01  1.217960059E+04
2.269460179E+01  1.217186719E+04
2.271036740E+01  1.220629785E+04
2.272613302E+01  1.221627051E+04
2.274189863E+01  1.220393359E+04
2.275766425E+01  1.215840430E+04
2.277342986E+01  1.215822168E+04
2.278919547E+01  1.216150195E+04
2.280496109E+01  1.218484082E+04
2.282072670E+01  1.217189844E+04
2.283649232E+01  1.217071094E+04
2.285225793E+01  1.215447754E+04
2.286802355E+01  1.213725391E+04
2.288378916E+01  1.209377734E+04
2.289955477E+01  1.206651367E+04
2.291532039E+01  1.203977148E+04
2.293108600E+01  1.202798926E+04
2.294685162E+01  1.201508105E+04
2.296261723E+01  1.203066504E+04
2.297838285E+01  1.206836426E+04
2.299414846E+01  1.209650488E+04
2.300991407E+01  1.210243457E+04
2.302567969E+01  1.207486523E+04
2.304144530E+01  1.202410156E+04
2.305721092E+01  1.196994336E+04
2.307297653E+01  1.194160254E+04
2.308874215E+01  1.191292285E+04
2.310450776E+01  1.190011719E+04
2.312027337E+01  1.195336816E+04
2.313603899E+01  1.192832129E+04
2.315180460E+01  1.191415332E+04
2.316757022E+01  1.190157910E+04
2.318333583E+01  1.181870508E+04
2.319910145E+01  1.180977930E+04
2.321486706E+01  1.182669238E+04
2.323063267E+01  1.186579688E+04
2.324639829E+01  1.180738770E+04
2.326216390E+01  1.174301855E+04
2.327792952E+01  1.174646973E+04
2.329369513E+01  1.189054004E+04
2.330946075E+01  1.196138770E+04
2.332522636E+01  1.191646484E+04
2.334099197E+01  1.184471484E+04
2.335675759E+01  1.183043750E+04
2.337252320E+01  1.184423438E+04
2.338828882E+01  1.181093164E+04
2.340405443E+01  1.182645215E+04
2.341982005E+01  1.178726465E+04
2.343558566E+01  1.182998926E+04
2.345135127E+01  1.174892578E+04
2.346711689E+01  1.174853027E+04
2.348288250E+01  1.177509082E+04
2.349864812E+01  1.188824707E+04
2.351441373E+01  1.200425684E+04
2.353017935E+01  1.190721973E+04
2.354594496E+01  1.176862207E+04
2.356171057E+01  1.165868066E+04
2.357747619E+01  1.176907520E+04
2.359324180E+01  1.202079395E+04
2.360900742E+01  1.204150391E+04
2.362477303E+01  1.206923926E+04
2.364053865E+01  1.187593652E+04
2.365630426E+01  1.188045117E+04
2.367206987E+01  1.174672559E+04
2.368783549E+01  1.157297070E+04
2.370360110E+01  1.108493457E+04
2.371936672E+01  1.090170410E+04
2.373513233E+01  1.070213184E+04
2.375089795E+01  1.041026074E+04
2.376666356E+01  9.953693359E+03
